Energy,O5_XAS
519.3311842257813,5.113752486861551e-07
519.3511842257814,5.317232227061265e-07
519.3711842257813,5.521247192623968e-07
519.3911842257813,5.725384220592415e-07
519.4111842257813,5.92923201598063e-07
519.4311842257813,6.132383855132537e-07
519.4511842257813,6.334440234167329e-07
519.4711842257814,6.535011433917553e-07
519.4911842257814,6.733719974064122e-07
519.5111842257813,6.93020293090952e-07
519.5311842257813,7.124114095274895e-07
519.5511842257813,7.315125949463472e-07
519.5711842257813,7.502931444908696e-07
519.5911842257814,7.687245565068664e-07
519.6111942257813,7.867895962451375e-07
519.6311942257813,8.04446480313798e-07
519.6511942257813,8.216831482959512e-07
519.6711942257813,8.384810097117306e-07
519.6911942257814,8.548241048596837e-07
519.7111942257814,8.706991177559689e-07
519.7311942257813,8.86095365771047e-07
519.7511942257813,9.010047669237353e-07
519.7711942257813,9.15421786048246e-07
519.7911942257813,9.293433612723337e-07
519.8111942257814,9.42768812439197e-07
519.8311942257814,9.5569973326613e-07
519.8511942257813,9.681398691614038e-07
519.8711942257813,9.800949827103948e-07
519.8911942257813,9.915727089021825e-07
519.9111942257813,1.0025824021899387e-06
519.9311942257814,1.0131349774701529e-06
519.9511942257814,1.0232427470258122e-06
519.9711942257813,1.0329192554122539e-06
519.9911942257813,1.0421791141691493e-06
520.0111942257813,1.0510378381288545e-06
520.0311942257813,1.0595116849556673e-06
520.0511942257813,1.0676174994011351e-06
520.0711942257814,1.075372563598825e-06
520.0911942257814,1.0827944545515186e-06
520.1111942257813,1.0899009097898626e-06
520.1312042257813,1.096713034903377e-06
520.1512042257814,1.1032417205834285e-06
520.1712042257814,1.109507949761236e-06
520.1912042257813,1.1155289463370091e-06
520.2112042257813,1.1213215675990685e-06
520.2312042257813,1.1269022298269133e-06
520.2512042257813,1.1322868442353348e-06
520.2712042257813,1.1374907630039806e-06
520.2912042257814,1.1425287350332842e-06
520.3112042257814,1.1474148709785422e-06
520.3312042257813,1.152162617040744e-06
520.3512042257813,1.1567847369323652e-06
520.3712042257813,1.16129330139244e-06
520.3912042257813,1.1656996845932033e-06
520.4112042257814,1.1700145667621485e-06
520.4312042257814,1.1742479423363561e-06
520.4512042257813,1.1784091329701338e-06
520.4712042257813,1.1825068047294504e-06
520.4912042257813,1.1865489888288817e-06
520.5112042257813,1.190543105294677e-06
520.5312042257814,1.194495988971799e-06
520.5512042257814,1.19841391733118e-06
520.5712042257813,1.202302639575839e-06
520.5912042257813,1.2061674065877597e-06
520.6112042257813,1.2100130013037254e-06
520.6312042257813,1.213843769153504e-06
520.6512042257814,1.2176636482392672e-06
520.6712142257813,1.2214781039710167e-06
520.6912142257813,1.2252865366629475e-06
520.7112142257813,1.2290937446922442e-06
520.7312142257813,1.2329023245106849e-06
520.7512142257814,1.2367146040142985e-06
520.7712142257814,1.2405326667558214e-06
520.7912142257813,1.2443583747642008e-06
520.8112142257813,1.2481933899354073e-06
520.8312142257813,1.2520391939821076e-06
520.8512142257813,1.2558971069486375e-06
520.8712142257813,1.2597683043144894e-06
520.8912142257814,1.2636538327231926e-06
520.9112142257814,1.2675546243845651e-06
520.9312142257813,1.2714715102075352e-06
520.9512142257813,1.275405231726643e-06
520.9712142257813,1.2793564518908638e-06
520.9912142257813,1.2833257647859053e-06
521.0112142257814,1.2873137043629162e-06
521.0312142257814,1.2913207522465784e-06
521.0512142257813,1.2953473446952822e-06
521.0712142257813,1.2993938787835906e-06
521.0912142257813,1.3034607178755515e-06
521.1112142257813,1.3075481964540813e-06
521.1312142257814,1.3116566243683739e-06
521.1512142257814,1.3157862905574794e-06
521.1712142257813,1.3199374663048813e-06
521.1912142257813,1.324110408074074e-06
521.2112242257813,1.3283074629927493e-06
521.2312242257814,1.332524670083437e-06
521.2512242257814,1.3367643468044538e-06
521.2712242257813,1.341026711868012e-06
521.2912242257813,1.3453119785611175e-06
521.3112242257813,1.3496203559153809e-06
521.3312242257813,1.3539520497074914e-06
521.3512242257814,1.3583072633130369e-06
521.3712242257814,1.3626861984336506e-06
521.3912242257813,1.3670890557155764e-06
521.4112242257813,1.3715160352747217e-06
521.4312242257813,1.3759673371421813e-06
521.4512242257813,1.3804431616419537e-06
521.4712242257813,1.384943709711155e-06
521.4912242257814,1.3894691831717017e-06
521.5112242257813,1.394019784960934e-06
521.5312242257813,1.3985957193281707e-06
521.5512242257813,1.403197192002335e-06
521.5712242257813,1.4078244103358034e-06
521.5912242257813,1.4124775834284302e-06
521.6112242257814,1.417156922235249e-06
521.6312242257814,1.4218626396605593e-06
521.6512242257813,1.4265949506413316e-06
521.6712242257813,1.4313540722213297e-06
521.6912242257813,1.4361402236181392e-06
521.7112242257813,1.4409536262843201e-06
521.7312342257813,1.4457969313125219e-06
521.7512342257813,1.4506655240010844e-06
521.7712342257813,1.4555620463881472e-06
521.7912342257813,1.460486729398522e-06
521.8112342257813,1.4654398064441682e-06
521.8312342257814,1.470421513468519e-06
521.8512342257814,1.4754320889895924e-06
521.8712342257813,1.4804717741425768e-06
521.8912342257813,1.4855408127215383e-06
521.9112342257813,1.4906394512208325e-06
521.9312342257813,1.495767938876152e-06
521.9512342257814,1.5009265277054115e-06
521.9712342257814,1.506115472549338e-06
521.9912342257813,1.5113350311122854e-06
522.0112342257813,1.5165854640027717e-06
522.0312342257813,1.5218670347741803e-06
522.0512342257813,1.5271800099655587e-06
522.0712342257814,1.532524659142574e-06
522.0912342257814,1.5379012549385432e-06
522.1112342257813,1.5433100730960151e-06
522.1312342257813,1.548751392508356e-06
522.1512342257813,1.5542254952618962e-06
522.1712342257813,1.5597326666784475e-06
522.1912342257813,1.5652731953583647e-06
522.2112342257814,1.5708473732241817e-06
522.2312342257813,1.5764554955647566e-06
522.2512342257813,1.582097861080428e-06
522.2712442257813,1.5877776190755423e-06
522.2912442257814,1.5934893984200374e-06
522.3112442257814,1.5992363381261075e-06
522.3312442257813,1.6050187510076837e-06
522.3512442257813,1.6108369535278809e-06
522.3712442257813,1.6166912658495934e-06
522.3912442257813,1.622582011887223e-06
522.4112442257813,1.6285095193595596e-06
522.4312442257814,1.6344741198439504e-06
522.4512442257814,1.6404761488315626e-06
522.4712442257813,1.646515945784295e-06
522.4912442257813,1.652593854192717e-06
522.5112442257813,1.6587102216355566e-06
522.5312442257813,1.6648653998405916e-06
522.5512442257814,1.6710597447470145e-06
522.5712442257814,1.6772936165691224e-06
522.5912442257813,1.6835673798618808e-06
522.6112442257813,1.6898814035876656e-06
522.6312442257813,1.6962360611847447e-06
522.6512442257813,1.7026317306373374e-06
522.6712442257814,1.7090687945472806e-06
522.6912442257814,1.7155476402071543e-06
522.7112442257813,1.7220686596753827e-06
522.7312442257813,1.7286322498526143e-06
522.7512442257813,1.735238812559909e-06
522.7712442257813,1.7418887546185129e-06
522.7912542257814,1.7485858458205685e-06
522.8112542257813,1.7553238096641789e-06
522.8312542257813,1.7621064043583366e-06
522.8512542257813,1.7689340575575458e-06
522.8712542257813,1.7758072023393069e-06
522.8912542257814,1.7827262772933417e-06
522.9112542257814,1.7896917266120961e-06
522.9312542257813,1.7967040001831133e-06
522.9512542257813,1.8037635536824424e-06
522.9712542257813,1.810870848669669e-06
522.9912542257813,1.8180263526843178e-06
523.0112542257814,1.825230539343709e-06
523.0312542257814,1.832483888442001e-06
523.0512542257813,1.8397868860510899e-06
523.0712542257813,1.8471400246225294e-06
523.0912542257813,1.8545438030911447e-06
523.1112542257813,1.8619987269801255e-06
523.1312542257813,1.869505308507694e-06
523.1512542257814,1.8770640666954863e-06
523.1712542257814,1.8846755274784105e-06
523.1912542257813,1.8923402238167665e-06
523.2112542257813,1.9000586958098336e-06
523.2312542257813,1.9078314908116747e-06
523.2512542257813,1.915659163549011e-06
523.2712542257814,1.9235422762413713e-06
523.2912542257814,1.9314813987233387e-06
523.3112542257813,1.9394771085697192e-06
523.3312642257813,1.9475340320631346e-06
523.3512642257813,1.9556447099959056e-06
523.3712642257814,1.963813756049022e-06
523.3912642257814,1.9720417800638183e-06
523.4112642257813,1.980329400287325e-06
523.4312642257813,1.988677243514142e-06
523.4512642257813,1.9970859452318266e-06
523.4712642257813,2.0055561497695557e-06
523.4912642257814,2.014088510450311e-06
523.5112642257814,2.0226836897464124e-06
523.5312642257813,2.031342359439134e-06
523.5512642257813,2.040065200781662e-06
523.5712642257813,2.0488529046661044e-06
523.5912642257813,2.0577061717944117e-06
523.6112642257813,2.0666257128533462e-06
523.6312642257814,2.0756122486936413e-06
523.6512642257813,2.0846665105131423e-06
523.6712642257813,2.0937892400447938e-06
523.6912642257813,2.102981189748504e-06
523.7112642257813,2.1122431230078305e-06
523.7312642257813,2.1215758143311965e-06
523.7512642257814,2.130980049557846e-06
523.7712642257814,2.1404566260683688e-06
523.7912642257813,2.150006353000583e-06
523.8112642257813,2.1596300514698973e-06
523.8312642257813,2.1693285547949728e-06
523.8512742257814,2.1791076148702416e-06
523.8712742257813,2.1889583163062224e-06
523.8912742257813,2.1988863985462247e-06
523.9112742257813,2.208892746088901e-06
523.9312742257813,2.2189782568432913e-06
523.9512742257813,2.2291438423866646e-06
523.9712742257814,2.2393904282281353e-06
523.9912742257814,2.249718954077802e-06
524.0112742257813,2.2601303741224742e-06
524.0312742257813,2.270625657306831e-06
524.0512742257813,2.2812057876212044e-06
524.0712742257813,2.2918717643956386e-06
524.0912742257814,2.3026246026006555e-06
524.1112742257814,2.3134653331544483e-06
524.1312742257813,2.3243950032377235e-06
524.1512742257813,2.335414676615125e-06
524.1712742257813,2.346525433964431e-06
524.1912742257813,2.3577283732134305e-06
524.2112742257814,2.3690246098848296e-06
524.2312742257814,2.3804152774491307e-06
524.2512742257813,2.3919015276867147e-06
524.2712742257813,2.4034845310581584e-06
524.2912742257813,2.415165477084025e-06
524.3112742257813,2.4269455747341416e-06
524.3312742257813,2.438826052826615e-06
524.3512742257814,2.4508081604371006e-06
524.3712742257813,2.462893167318162e-06
524.3912842257813,2.4750884852071e-06
524.4112842257813,2.4873832378422127e-06
524.4312842257814,2.499784828101269e-06
524.4512842257814,2.5122946128730174e-06
524.4712842257813,2.524913971989792e-06
524.4912842257813,2.537644308716236e-06
524.5112842257813,2.550487050251058e-06
524.5312842257813,2.5634436482417502e-06
524.5512842257813,2.576515579312631e-06
524.5712842257814,2.589704345606669e-06
524.5912842257814,2.6030114753410245e-06
524.6112842257813,2.6164385233777218e-06
524.6312842257813,2.629987071808486e-06
524.6512842257813,2.6436587305551757e-06
524.6712842257813,2.65745513798585e-06
524.6912842257814,2.6713779615471633e-06
524.7112842257814,2.6854288984129554e-06
524.7312842257813,2.699609676150965e-06
524.7512842257813,2.7139220534064753e-06
524.7712842257813,2.728367820604747e-06
524.7912842257813,2.742948800672419e-06
524.8112842257814,2.757666849778642e-06
524.8312842257814,2.7725238580962188e-06
524.8512842257813,2.787521750584623e-06
524.8712842257813,2.8026624877940958e-06
524.8912842257813,2.8179480666928067e-06
524.9112842257813,2.833380521517417e-06
524.9312942257814,2.8489697529558506e-06
524.9512942257813,2.864702291880645e-06
524.9712942257813,2.8805880430143825e-06
524.9912942257813,2.8966291986945337e-06
525.0112942257813,2.9128279931638836e-06
525.0312942257814,2.9291867035812874e-06
525.0512942257814,2.9457076510621616e-06
525.0712942257813,2.962393201751189e-06
525.0912942257813,2.9792457679265396e-06
525.1112942257813,2.9962678091381553e-06
525.1312942257813,3.0134618333808078e-06
525.1512942257814,3.0308303983032986e-06
525.1712942257814,3.048376112454693e-06
525.1912942257813,3.066101636570276e-06
525.2112942257813,3.0840096848967678e-06
525.2312942257813,3.1021030265597525e-06
525.2512942257813,3.1203844869742413e-06
525.2712942257813,3.1388569493000976e-06
525.2912942257814,3.157523355944033e-06
525.3112942257814,3.176386710109354e-06
525.3312942257813,3.19545007739674e-06
525.3512942257813,3.2147165874558456e-06
525.3712942257813,3.234189435691283e-06
525.3912942257813,3.2538718850242695e-06
525.4112942257814,3.2737672677123368e-06
525.4312942257814,3.2938789872285346e-06
525.4513042257813,3.3142207415406905e-06
525.4713042257813,3.334775752355396e-06
525.4913042257813,3.3555577592939953e-06
525.5113042257814,3.3765704708136304e-06
525.5313042257814,3.397817676970729e-06
525.5513042257813,3.4193032517132835e-06
525.5713042257813,3.441031155250192e-06
525.5913042257813,3.4630054365026166e-06
525.6113042257813,3.4852302356398476e-06
525.6313042257814,3.507709786703488e-06
525.6513042257814,3.530448420322708e-06
525.6713042257813,3.5534505665264212e-06
525.6913042257813,3.57672075765379e-06
525.7113042257813,3.6002636313692796e-06
525.7313042257813,3.6240839337859964e-06
525.7513042257814,3.6481865227023094e-06
525.7713042257814,3.6725763709559633e-06
525.7913042257813,3.6972585699030164e-06
525.8113042257813,3.7222383330244472e-06
525.8313042257813,3.747520999668409e-06
525.8513042257813,3.7731120389334762e-06
525.8713042257814,3.7990170536997893e-06
525.8913042257814,3.825241784814102e-06
525.9113042257814,3.851792115438207e-06
525.9313042257813,3.878674075565648e-06
525.9513042257813,3.905893846716843e-06
525.9713042257813,3.9334577668204785e-06
525.9913142257814,3.96138638138539e-06
526.0113142257813,3.989658444755354e-06
526.0313142257813,4.018294664580092e-06
526.0513142257813,4.0473020573812516e-06
526.0713142257813,4.076687823629904e-06
526.0913142257813,4.1064593539556275e-06
526.1113142257814,4.136624235617431e-06
526.1313142257814,4.167190259248995e-06
526.1513142257813,4.198165425895082e-06
526.1713142257813,4.2295579543507494e-06
526.1913142257813,4.261376288821979e-06
526.2113142257813,4.293629106923861e-06
526.2313142257814,4.326325328034715e-06
526.2513142257814,4.3594741220245185e-06
526.2713142257813,4.393084918380833e-06
526.2913142257813,4.427167415750745e-06
526.3113142257813,4.4617315919248515e-06
526.3313142257813,4.496787714287315e-06
526.3513142257814,4.532346350759298e-06
526.3713142257814,4.568418381263015e-06
526.3913142257813,4.605015009740509e-06
526.4113142257813,4.642147776755874e-06
526.4313142257813,4.679828572719588e-06
526.4513142257813,4.718069651771842e-06
526.4713142257813,4.7568836463661456e-06
526.4913142257814,4.796283582597855e-06
526.5113242257813,4.836303048194162e-06
526.5313242257813,4.876915912161329e-06
526.5513242257813,4.918156330655393e-06
526.5713242257814,4.960039074513202e-06
526.5913242257814,5.002579397857602e-06
526.6113242257813,5.045793059055328e-06
526.6313242257813,5.08969634285177e-06
526.6513242257813,5.134306083772806e-06
526.6713242257813,5.179639690886979e-06
526.6913242257813,5.225715174032422e-06
526.7113242257814,5.27255117162349e-06
526.7313242257813,5.320166980162176e-06
526.7513242257813,5.368582585598115e-06
526.7713242257813,5.417818696687355e-06
526.7913242257813,5.467896780526167e-06
526.8113242257813,5.518839100450395e-06
526.8313242257814,5.5706687565151905e-06
526.8513242257814,5.623409728793104e-06
526.8713242257813,5.677086923763203e-06
526.8913242257813,5.731726224087118e-06
526.9113242257813,5.787354542115e-06
526.9313242257813,5.843999877501887e-06
526.9513242257814,5.901691379365529e-06
526.9713242257814,5.960459413470721e-06
526.9913242257813,6.020335634995364e-06
527.0113242257813,6.081353067494847e-06
527.0313242257813,6.143546188776107e-06
527.0513342257814,6.206983036190361e-06
527.0713342257814,6.271637896396555e-06
527.0913342257813,6.33758160442747e-06
527.1113342257813,6.404855483346405e-06
527.1313342257813,6.473502875626756e-06
527.1513342257813,6.54356929160412e-06
527.1713342257814,6.615102573275635e-06
527.1913342257814,6.688153075372029e-06
527.2113342257813,6.762773865888622e-06
527.2313342257813,6.8390209485299735e-06
527.2513342257813,6.916953509852802e-06
527.2713342257813,6.996634194233938e-06
527.2913342257814,7.078129410183311e-06
527.3113342257814,7.161509671947681e-06
527.3313342257813,7.246849980835083e-06
527.3513342257813,7.334230251192057e-06
527.3713342257813,7.423735786549468e-06
527.3913342257813,7.515457812058098e-06
527.4113342257813,7.609494070004606e-06
527.4313342257814,7.705949485913758e-06
527.4513342257814,7.804936913504233e-06
527.4713342257813,7.906577967588743e-06
527.4913342257813,8.011003954846433e-06
527.5113342257813,8.11835691331086e-06
527.5313342257813,8.228790772333519e-06
527.5513342257814,8.342472645741722e-06
527.5713342257814,8.459584271870731e-06
527.5913442257813,8.580384927411368e-06
527.6113442257813,8.70496993610419e-06
527.6313442257813,8.833634700776494e-06
527.6513442257814,8.966637339982877e-06
527.6713442257814,9.104260546744283e-06
527.6913442257813,9.246814249400709e-06
527.7113442257813,9.394638539927034e-06
527.7313442257813,9.548106889467776e-06
527.7513442257813,9.707629670976229e-06
527.7713442257814,9.873658008741173e-06
527.7913442257814,1.004668797416711e-05
527.8113442257813,1.0227265146440608e-05
527.8313442257813,1.0415989555532582e-05
527.8513442257813,1.0613521023428559e-05
527.8713442257813,1.0820584917373352e-05
527.8913442257814,1.1037978326298987e-05
527.9113442257814,1.1266576668378976e-05
527.9313442257813,1.1507340733832444e-05
527.9513442257813,1.1761324162539134e-05
527.9713442257813,1.2029681350848906e-05
527.9913442257813,1.2313675775993253e-05
528.0113442257814,1.261468871982423e-05
528.0313442257814,1.293422836615287e-05
528.0513442257813,1.3273939237819203e-05
528.0713442257813,1.3635611930678756e-05
528.0913442257813,1.4021193092191589e-05
528.1113542257813,1.4433008266158058e-05
528.1313542257814,1.4872936184729827e-05
528.1513542257813,1.5343652177329446e-05
528.1713542257813,1.5847829461473894e-05
528.1913542257813,1.638834830298076e-05
528.2113542257813,1.696830576278082e-05
528.2313542257813,1.759102501593477e-05
528.2513542257814,1.826006410159173e-05
528.2713542257814,1.897922395226275e-05
528.2913542257813,1.975255554140799e-05
528.3113542257813,2.0584365979889465e-05
528.3313542257813,2.1479223385062115e-05
528.3513542257813,2.244196034096994e-05
528.3713542257814,2.3477675764865983e-05
528.3913542257814,2.45917349941721e-05
528.4113542257813,2.5789767909532752e-05
528.4313542257813,2.7077664913539194e-05
528.4513542257813,2.8461570591953593e-05
528.4713542257813,2.994787489429498e-05
528.4913542257814,3.154320168409601e-05
528.5113542257814,3.325439452580383e-05
528.5313542257813,3.50884995956102e-05
528.5513542257813,3.70527456266597e-05
528.5713542257813,3.915452082617028e-05
528.5913542257813,4.1401346731724684e-05
528.6113542257813,4.3800849006886544e-05
528.6313542257814,4.636072521177342e-05
528.6513642257813,4.909011695297266e-05
528.6713642257813,5.199403238885168e-05
528.6913642257813,5.508148379066592e-05
528.7113642257814,5.836007686331992e-05
528.7313642257814,6.183728663961978e-05
528.7513642257813,6.552041006105714e-05
528.7713642257813,6.941651690497511e-05
528.7913642257813,7.353239941589737e-05
528.8113642257813,7.787452103410164e-05
528.8313642257813,8.2448964646958e-05
528.8513642257814,8.726138081680474e-05
528.8713642257813,9.23169364624246e-05
528.8913642257813,9.762026448986938e-05
528.9113642257813,0.00010317541487959608
528.9313642257813,0.00010898580774357426
