Energy,O4_XANES
519.2328595833436,4.2677258625059333e-07
519.2528595833436,4.4375056540053904e-07
519.2728595833436,4.6077283381407984e-07
519.2928595833436,4.778048965839281e-07
519.3128595833437,4.948124155225206e-07
519.3328595833436,5.117614348499729e-07
519.3528595833436,5.286186022933674e-07
519.3728595833436,5.453513832081656e-07
519.3928595833436,5.619282654451287e-07
519.4128595833436,5.783189528271688e-07
519.4328595833437,5.944945452753898e-07
519.4528595833436,6.104277038246593e-07
519.4728595833436,6.260927989964082e-07
519.4928595833436,6.414660412381801e-07
519.5128695833436,6.565330403272422e-07
519.5328695833437,6.712589340857991e-07
519.5528695833436,6.856336532140381e-07
519.5728695833436,6.996416843963608e-07
519.5928695833436,7.132697109761018e-07
519.6128695833436,7.265066237082279e-07
519.6328695833436,7.393435120567911e-07
519.6528695833437,7.517736368406718e-07
519.6728695833436,7.637923852413335e-07
519.6928695833436,7.75397209375152e-07
519.7128695833436,7.865875497921655e-07
519.7328695833436,7.973647453999342e-07
519.7528695833436,8.077319314156189e-07
519.7728695833437,8.176939270268255e-07
519.7928695833436,8.272571144893611e-07
519.8128695833436,8.36429311410905e-07
519.8328695833436,8.45219637960242e-07
519.8528695833436,8.536383807106603e-07
519.8728695833436,8.616968547684369e-07
519.8928695833436,8.694072657599204e-07
519.9128695833436,8.767825731543608e-07
519.9328695833436,8.838363562870844e-07
519.9528695833436,8.905826843234166e-07
519.9728695833436,8.970359912671792e-07
519.9928695833436,9.03210956977095e-07
520.0128695833436,9.091223950073973e-07
520.0328795833436,9.147879195854622e-07
520.0528795833436,9.202166491060229e-07
520.0728795833436,9.254260948430389e-07
520.0928795833436,9.304306402675974e-07
520.1128795833436,9.352443624769299e-07
520.1328795833437,9.398809700922002e-07
520.1528795833436,9.443537497907391e-07
520.1728795833436,9.486755212595207e-07
520.1928795833436,9.528586002692827e-07
520.2128795833436,9.569147694955365e-07
520.2328795833436,9.608552566503954e-07
520.2528795833437,9.646907194399355e-07
520.2728795833436,9.684312368240537e-07
520.2928795833436,9.72086306030069e-07
520.3128795833436,9.756648447549903e-07
520.3328795833436,9.791751979864332e-07
520.3528795833436,9.826251488748456e-07
520.3728795833437,9.860219331009515e-07
520.3928795833436,9.893722562000344e-07
520.4128795833436,9.92682313328834e-07
520.4328795833436,9.95957810988571e-07
520.4528795833436,9.992039902505078e-07
520.4728795833436,1.0024256510650724e-06
520.4928795833437,1.0056271772725023e-06
520.5128795833436,1.0088125619707973e-06
520.5328795833436,1.0119854329353362e-06
520.5528795833436,1.0151490778216576e-06
520.5728895833436,1.018308046510516e-06
520.5928895833437,1.0214618636977257e-06
520.6128895833436,1.0246145223675418e-06
520.6328895833436,1.027768189913707e-06
520.6528895833436,1.03092480949338e-06
520.6728895833436,1.0340861202454255e-06
520.6928895833436,1.0372536763451379e-06
520.7128895833437,1.040428864866065e-06
520.7328895833436,1.0436129224380949e-06
520.7528895833436,1.0468069507076711e-06
520.7728895833436,1.050011930619137e-06
520.7928895833436,1.0532287355482714e-06
520.8128895833436,1.0564581433280979e-06
520.8328895833436,1.0597008472145113e-06
520.8528895833437,1.062957465844799e-06
520.8728895833436,1.0662285522459964e-06
520.8928895833436,1.0695146019528951e-06
520.9128895833436,1.0728160602962165e-06
520.9328895833436,1.076133328922253e-06
520.9528895833436,1.0794667716043303e-06
520.9728895833437,1.0828167194050732e-06
520.9928895833436,1.086183475246405e-06
521.0128895833436,1.0895673179420796e-06
521.0328895833436,1.0929685057440701e-06
521.0528895833436,1.0963872794518124e-06
521.0728895833436,1.0998238651296093e-06
521.0928895833437,1.103278476474445e-06
521.1128995833436,1.106753057885521e-06
521.1328995833436,1.110244331455627e-06
521.1528995833436,1.1137542168997726e-06
521.1728995833436,1.117282896422329e-06
521.1928995833437,1.120830547705309e-06
521.2128995833436,1.1243973448852086e-06
521.2328995833436,1.1279834593886802e-06
521.2528995833436,1.1315890606455342e-06
521.2728995833436,1.1352143166962005e-06
521.2928995833436,1.1388593947083223e-06
521.3128995833437,1.1425244614154798e-06
521.3328995833436,1.1462096834893468e-06
521.3528995833436,1.1499152278554474e-06
521.3728995833436,1.1536412619607288e-06
521.3928995833436,1.157387954000665e-06
521.4128995833436,1.1611554731122096e-06
521.4328995833437,1.1649439895381102e-06
521.4528995833437,1.168753674767172e-06
521.4728995833436,1.1725847016548036e-06
521.4928995833436,1.1764372445268103e-06
521.5128995833436,1.1803114792696624e-06
521.5328995833436,1.1842075834095037e-06
521.5528995833436,1.1881257361819965e-06
521.5728995833437,1.1920661185947085e-06
521.5928995833436,1.196028913483341e-06
521.6128995833436,1.200014305563302e-06
521.6329095833436,1.2040244912953039e-06
521.6529095833436,1.2080556511910204e-06
521.6729095833437,1.2121099742585265e-06
521.6929095833436,1.2161876531803557e-06
521.7129095833436,1.2202888827314027e-06
521.7329095833436,1.2244138598162874e-06
521.7529095833436,1.2285627835059192e-06
521.7729095833436,1.2327358550734083e-06
521.7929095833437,1.2369332780294814e-06
521.8129095833436,1.241155258157453e-06
521.8329095833436,1.2454020035481558e-06
521.8529095833436,1.2496737246344851e-06
521.8729095833436,1.2539706342259661e-06
521.8929095833436,1.25829294754324e-06
521.9129095833437,1.2626408822526062e-06
521.9329095833436,1.2670146585004818e-06
521.9529095833436,1.27141449894821e-06
521.9729095833436,1.275840628806762e-06
521.9929095833436,1.2802932758717622e-06
522.0129095833436,1.2847726705587014e-06
522.0329095833436,1.2892790459384496e-06
522.0529095833436,1.293812637773115e-06
522.0729095833436,1.29837368455217e-06
522.0929095833436,1.3029624275292717e-06
522.1129095833436,1.307579110759323e-06
522.1329095833436,1.312223981136216e-06
522.1529095833436,1.3168972884311715e-06
522.1729195833436,1.3216016435487009e-06
522.1929195833436,1.3263326002355192e-06
522.2129195833436,1.331092760941744e-06
522.2329195833436,1.3358823873469247e-06
522.2529195833436,1.3407017442107324e-06
522.2729195833437,1.345551099416102e-06
522.2929195833436,1.3504307240132523e-06
522.3129195833436,1.3553408922649518e-06
522.3329195833436,1.3602818816925836e-06
522.3529195833436,1.3652539731234318e-06
522.3729195833436,1.3702574507390528e-06
522.3929195833437,1.3752926021248391e-06
522.4129195833436,1.3803597183206322e-06
522.4329195833436,1.3854590938728247e-06
522.4529195833436,1.3905910268874262e-06
522.4729195833436,1.3957558190845497e-06
522.4929195833436,1.4009537758541437e-06
522.5129195833437,1.406185206313106e-06
522.5329195833436,1.4114504233635468e-06
522.5529195833436,1.4167497437527385e-06
522.5729195833436,1.4220834881341206e-06
522.5929195833436,1.427451981129845e-06
522.6129195833436,1.4328555513946831e-06
522.6329195833437,1.438294531681349e-06
522.6529195833436,1.4437692589070856e-06
522.6729195833436,1.449280074221943e-06
522.6929295833436,1.4548301058736525e-06
522.7129295833436,1.4604141565763415e-06
522.7329295833437,1.466035345094436e-06
522.7529295833436,1.471694030219504e-06
522.7729295833436,1.477390575336976e-06
522.7929295833436,1.4831253485022055e-06
522.8129295833436,1.488898722517987e-06
522.8329295833436,1.4947110750133178e-06
522.8529295833437,1.5005627885234147e-06
522.8729295833436,1.5064542505708404e-06
522.8929295833436,1.5123858537481697e-06
522.9129295833436,1.5183579958015546e-06
522.9329295833436,1.5243710797156975e-06
522.9529295833436,1.5304255138000246e-06
522.9729295833436,1.5365217117761421e-06
522.9929295833437,1.5426600928665991e-06
523.0129295833436,1.5488410818848413e-06
523.0329295833436,1.5550651093268748e-06
523.0529295833436,1.561332611464034e-06
523.0729295833436,1.5676440304374261e-06
523.0929295833436,1.573999814353922e-06
523.1129295833437,1.5804004173838358e-06
523.1329295833436,1.5868462998601886e-06
523.1529295833436,1.593337928380158e-06
523.1729295833436,1.599875775908098e-06
523.1929295833436,1.606460321880781e-06
523.2129295833436,1.6130920523147266e-06
523.2329395833436,1.6197748116278803e-06
523.2529395833436,1.6265024201174976e-06
523.2729395833436,1.6332787119588064e-06
523.2929395833436,1.640104200610343e-06
523.3129395833436,1.6469794066825888e-06
523.3329395833437,1.6539048580602266e-06
523.3529395833436,1.6608810900270084e-06
523.3729395833436,1.6679086453939197e-06
523.3929395833436,1.6749880746299522e-06
523.4129395833436,1.682119935996149e-06
523.4329395833436,1.6893047956827765e-06
523.4529395833437,1.6965432279497964e-06
523.4729395833436,1.7038358152704586e-06
523.4929395833436,1.7111831484787287e-06
523.5129395833436,1.7185858269198123e-06
523.5329395833436,1.7260444586044635e-06
523.5529395833436,1.7335596603669228e-06
523.5729395833437,1.741132058026657e-06
523.5929395833437,1.7487622865537023e-06
523.6129395833436,1.7564509902383724e-06
523.6329395833436,1.7641988228645334e-06
523.6529395833436,1.7720064478871534e-06
523.6729395833436,1.7798745386139956e-06
523.6929395833436,1.787803778391542e-06
523.7129395833437,1.7957948607952763e-06
523.7329395833436,1.80384848982415e-06
523.7529495833436,1.8119694544888519e-06
523.7729495833436,1.8201503636363936e-06
523.7929495833436,1.8283959963329265e-06
523.8129495833437,1.8367071003147859e-06
523.8329495833436,1.8450844347838542e-06
523.8529495833436,1.853528770630592e-06
523.8729495833436,1.8620408906615861e-06
523.8929495833436,1.8706215898324312e-06
523.9129495833436,1.8792716754857787e-06
523.9329495833437,1.8879919675947653e-06
523.9529495833436,1.8967832990116635e-06
523.9729495833436,1.9056465157226458e-06
523.9929495833436,1.9145824771078075e-06
524.0129495833436,1.9235920562074215e-06
524.0329495833436,1.9326761399942105e-06
524.0529495833437,1.9418356296520622e-06
524.0729495833436,1.9510714408609836e-06
524.0929495833436,1.9603845040893755e-06
524.1129495833436,1.969775764892741e-06
524.1329495833436,1.9792461842199646e-06
524.1529495833436,1.988796738727013e-06
524.1729495833436,1.9984284210983933e-06
524.1929495833436,2.0081422403767507e-06
524.2129495833436,2.017939222300462e-06
524.2329495833436,2.027820409650416e-06
524.2529495833436,2.037786862605089e-06
524.2729495833436,2.047839659105059e-06
524.2929595833436,2.0579849874009895e-06
524.3129595833436,2.068213822300001e-06
524.3329595833436,2.0785323454981617e-06
524.3529595833436,2.088941709831869e-06
524.3729595833436,2.099443087869371e-06
524.3929595833436,2.110037672336093e-06
524.4129595833436,2.1207266765511864e-06
524.4329595833436,2.1315113348751846e-06
524.4529595833436,2.1423929031700336e-06
524.4729595833436,2.153372659270561e-06
524.4929595833436,2.1644519034686315e-06
524.5129595833436,2.175631959009981e-06
524.5329595833437,2.186914172604165e-06
524.5529595833436,2.1982999149476843e-06
524.5729595833436,2.209790581261604e-06
524.5929595833436,2.221387591842796e-06
524.6129595833436,2.23309239263028e-06
524.6329595833436,2.244906455786676e-06
524.6529595833437,2.2568312802954626e-06
524.6729595833436,2.2688683925741415e-06
524.6929595833436,2.2810193471048833e-06
524.7129595833436,2.2932857270818815e-06
524.7329595833436,2.305669145077101e-06
524.7529595833436,2.3181712437245957e-06
524.7729595833437,2.330793696424211e-06
524.7929595833436,2.3435382080650506e-06
524.8129595833436,2.356406515770375e-06
524.8329695833436,2.3694069183069686e-06
524.8529695833436,2.3825282264410947e-06
524.8729695833437,2.3957787441139035e-06
524.8929695833436,2.40916034528998e-06
524.9129695833436,2.4226749402304144e-06
524.9329695833436,2.436324476378744e-06
524.9529695833436,2.4501109392740114e-06
524.9729695833436,2.4640363534915227e-06
524.9929695833437,2.4781027836123918e-06
525.0129695833436,2.4923123352224954e-06
525.0329695833436,2.5066671559431966e-06
525.0529695833436,2.5211694364932415e-06
525.0729695833436,2.5358214117843065e-06
525.0929695833436,2.5506253620509512e-06
525.1129695833436,2.5655836140162623e-06
525.1329695833437,2.580698542094704e-06
525.1529695833436,2.595972569632922e-06
525.1729695833436,2.611408170191342e-06
525.1929695833436,2.6270078688662464e-06
525.2129695833436,2.642774243655233e-06
525.2329695833436,2.6587099268671126e-06
525.2529695833437,2.6748176065781126e-06
525.2729695833436,2.691100028135604e-06
525.2929695833436,2.7075599957124936e-06
525.3129695833436,2.724200373912391e-06
525.3329695833436,2.74102408942888e-06
525.3529795833437,2.7580426848942965e-06
525.3729795833436,2.775242207584194e-06
525.3929795833436,2.7926342392301096e-06
525.4129795833436,2.8102219726588602e-06
525.4329795833436,2.8280086719637855e-06
525.4529795833436,2.8459976745322808e-06
525.4729795833437,2.864192393143578e-06
525.4929795833436,2.882596318138977e-06
525.5129795833436,2.9012130196690677e-06
525.5329795833436,2.920046150019018e-06
525.5529795833436,2.9390994460167753e-06
525.5729795833436,2.9583767315270886e-06
525.5929795833437,2.9778819200351336e-06
525.6129795833436,2.9976190173231254e-06
525.6329795833436,3.017592124245514e-06
525.6529795833436,3.037805439604974e-06
525.6729795833436,3.0582632631353904e-06
525.6929795833436,3.078969998595962e-06
525.7129795833437,3.0999301569818047e-06
525.7329795833436,3.1211483598556382e-06
525.7529795833436,3.1426293428080984e-06
525.7729795833436,3.16437795905021e-06
525.7929795833436,3.1863991831461515e-06
525.8129795833436,3.2086981148922916e-06
525.8329795833436,3.231279983349615e-06
525.8529795833437,3.2541501510371443e-06
525.8729795833436,3.277314118293403e-06
525.8929895833436,3.300789335378374e-06
525.9129895833436,3.324558131038417e-06
525.9329895833437,3.348638103541099e-06
525.9529895833437,3.3730353518790586e-06
525.9729895833436,3.3977561375161826e-06
525.9929895833436,3.422806889953387e-06
526.0129895833436,3.4481942125329837e-06
526.0329895833436,3.4739248884932188e-06
526.0529895833436,3.5000058872862305e-06
526.0729895833437,3.5264443711735557e-06
526.0929895833436,3.5532477021130913e-06
526.1129895833436,3.580423448955532e-06
526.1329895833436,3.6079793949641518e-06
526.1529895833436,3.6359235456780147e-06
526.1729895833436,3.664264137136837e-06
526.1929895833437,3.6930096444882708e-06
526.2129895833436,3.7221687909983395e-06
526.2329895833436,3.751750557490825e-06
526.2529895833436,3.7817641922373264e-06
526.2729895833436,3.8122192213271795e-06
526.2929895833436,3.84312545954493e-06
526.3129895833437,3.874493021786618e-06
526.3329895833436,3.906332335046954e-06
526.3529895833436,3.9386541510157644e-06
526.3729895833436,3.971469559318793e-06
526.3929895833436,4.004790001447082e-06
526.4129995833437,4.03864433535299e-06
526.4329995833436,4.073010918788281e-06
526.4529995833436,4.107919128691233e-06
526.4729995833436,4.14338196893199e-06
526.4929995833436,4.179412876935224e-06
526.5129995833436,4.216025742829959e-06
526.5329995833436,4.253234929698036e-06
526.5529995833436,4.291055295003774e-06
526.5729995833436,4.329502213293775e-06
526.5929995833436,4.368591600269658e-06
526.6129995833436,4.408339938338891e-06
526.6329995833436,4.4487643037686226e-06
526.6529995833436,4.4898823955753156e-06
526.6729995833437,4.531712566300165e-06
526.6929995833436,4.574273854835126e-06
526.7129995833436,4.617586021488519e-06
526.7329995833436,4.661669585492797e-06
526.7529995833436,4.706545865190484e-06
526.7729995833436,4.752237021157437e-06
526.7929995833437,4.79876610255733e-06
526.8129995833436,4.846157097055976e-06
526.8329995833436,4.894434984672307e-06
526.8529995833436,4.9436257959818e-06
526.8729995833436,4.993756675152704e-06
526.8929995833436,5.0448559483530895e-06
526.9129995833437,5.096953198140801e-06
526.9329995833436,5.150079344528404e-06
526.9530095833436,5.204294098235258e-06
526.9730095833436,5.259577154984526e-06
526.9930095833436,5.31599083937908e-06
527.0130095833437,5.373572396236259e-06
527.0330095833436,5.4323609449630465e-06
527.0530095833436,5.4923976214873996e-06
527.0730095833436,5.553725735177559e-06
527.0930095833436,5.6163909426551144e-06
527.1130095833436,5.6804414406500294e-06
527.1330095833437,5.745928180326298e-06
527.1530095833436,5.812905105814309e-06
527.1730095833436,5.881429420038229e-06
527.1930095833436,5.9515618812954426e-06
527.2130095833436,6.023367134478246e-06
527.2330095833436,6.096914081283164e-06
527.2530095833436,6.1722762942608175e-06
527.2730095833437,6.24953248011019e-06
527.2930095833436,6.328766998214558e-06
527.3130095833436,6.410070441068057e-06
527.3330095833436,6.493540283915636e-06
527.3530095833436,6.579281611677305e-06
527.3730095833436,6.667407931993875e-06
527.3930095833437,6.758042084048211e-06
527.4130095833436,6.851317253657605e-06
527.4330095833436,6.947378106015656e-06
527.4530095833436,7.046382048330523e-06
527.4730095833436,7.1485006355169765e-06
527.4930195833437,7.253974702481145e-06
527.5130195833436,7.362903628485486e-06
527.5330195833436,7.47556337087773e-06
527.5530195833436,7.592199513412688e-06
527.5730195833436,7.713081482979078e-06
527.5930195833436,7.838505136269734e-06
527.6130195833437,7.968795603263393e-06
527.6330195833436,8.104310405678863e-06
527.6530195833436,8.245442868528216e-06
527.6730195833436,8.392625842550454e-06
527.6930195833436,8.546335754699245e-06
527.7130195833436,8.707097002851301e-06
527.7330195833437,8.875486709508656e-06
527.7530195833436,9.052139847410271e-06
527.7730195833436,9.237754747636142e-06
527.7930195833436,9.433098997857042e-06
527.8130195833436,9.63901573493106e-06
527.8330195833436,9.856430331915764e-06
527.8530195833437,1.0086357474800603e-05
527.8730195833436,1.0329908618795287e-05
527.8930195833436,1.0588299807875494e-05
527.9130195833436,1.086285983436932e-05
527.9330195833436,1.1155038707836685e-05
527.9530195833436,1.14664163942057e-05
527.9730195833436,1.1798711777229773e-05
527.9930195833437,1.2153791784824399e-05
528.0130295833436,1.2533877120742347e-05
528.0330295833436,1.2940779552680046e-05
528.0530295833436,1.3377049132651258e-05
528.0730295833437,1.3845237037510531e-05
528.0930295833437,1.4348087864211384e-05
528.1130295833436,1.4888547954209053e-05
528.1330295833436,1.546977318486265e-05
528.1530295833436,1.6095136086049643e-05
528.1730295833436,1.67682321310668e-05
528.1930295833436,1.7492885042886646e-05
528.2130295833437,1.8273150950138127e-05
528.2330295833436,1.9113321222034637e-05
528.2530295833436,2.001792380831202e-05
528.2730295833436,2.0991722908951514e-05
528.2930295833436,2.2039716799866828e-05
528.3130295833436,2.3167133644511673e-05
528.3330295833437,2.4379425128110465e-05
528.3530295833436,2.568225776089328e-05
528.3730295833436,2.708150170977408e-05
528.3930295833436,2.8583217033860892e-05
528.4130295833436,3.019363721895695e-05
528.4330295833436,3.191914992893986e-05
528.4530295833437,3.376627491810381e-05
528.4730295833436,3.57416390777554e-05
528.4930295833436,3.785194862280097e-05
528.5130295833436,4.010395845858914e-05
528.5330295833436,4.250443880584177e-05
528.5530395833437,4.50614569943869e-05
528.5730395833436,4.7779150432787935e-05
528.5930395833436,5.066534805686617e-05
528.6130395833436,5.372649761974366e-05
528.6330395833436,5.6968859680773496e-05
528.6530395833436,6.039846166422223e-05
528.6730395833437,6.402105085099547e-05
528.6930395833436,6.784204669798004e-05
528.7130395833436,7.186649291194382e-05
528.7330395833436,7.609900973195193e-05
528.7530395833436,8.054374689780682e-05
528.7730395833436,8.52043377988255e-05
528.7930395833436,9.008385530844195e-05
528.8130395833437,9.51847698144244e-05
528.8330395833436,0.00010050890995139874
528.8530395833436,0.00010605742653258923
