Energy,O5_XANES
519.3129504066583,4.31520453909896e-07
519.3329504066584,4.4869147087210694e-07
519.3529504066584,4.6590771435446273e-07
519.3729504066583,4.831343232496371e-07
519.3929504066583,5.003365940609552e-07
519.4129504066583,5.174802090119055e-07
519.4329504066583,5.345314595222137e-07
519.4529504066584,5.51457462637696e-07
519.4729504066584,5.682263681106759e-07
519.4929504066583,5.848075539742808e-07
519.5129504066583,6.011718086265122e-07
519.5329504066583,6.172914976471785e-07
519.5529504066583,6.331407137967063e-07
519.5729504066584,6.486954088940788e-07
519.5929604066583,6.63941042967085e-07
519.6129604066583,6.788423583482254e-07
519.6329604066583,6.933891811226929e-07
519.6529604066583,7.075658261534874e-07
519.6729604066584,7.213588281558022e-07
519.6929604066584,7.347569526161867e-07
519.7129604066583,7.477511870490368e-07
519.7329604066583,7.603347134003862e-07
519.7529604066583,7.725028626246958e-07
519.7729604066583,7.842530526481634e-07
519.7929604066584,7.95584711096153e-07
519.8129604066584,8.064991842976806e-07
519.8329604066583,8.169996341883102e-07
519.8529604066583,8.27090924808337e-07
519.8729604066583,8.367795001439779e-07
519.8929604066583,8.460732550778856e-07
519.9129604066584,8.549814012083866e-07
519.9329604066584,8.635143292630796e-07
519.9529604066583,8.716834697764484e-07
519.9729604066583,8.795011536207648e-07
519.9929604066583,8.869804738839943e-07
520.0129604066583,8.941351504739283e-07
520.0329604066583,9.009793987017213e-07
520.0529604066584,9.075278029614972e-07
520.0729604066584,9.137951964789613e-07
520.0929604066583,9.197965479550102e-07
520.1129704066583,9.255496706372011e-07
520.1329704066584,9.310637508614375e-07
520.1529704066584,9.363564983614749e-07
520.1729704066584,9.414424485326916e-07
520.1929704066583,9.46335827449424e-07
520.2129704066583,9.510504890896472e-07
520.2329704066583,9.555998612854283e-07
520.2529704066583,9.599969001834842e-07
520.2729704066584,9.642540529127868e-07
520.2929704066584,9.683832280811215e-07
520.3129704066583,9.723957736605125e-07
520.3329704066583,9.76302461770718e-07
520.3529704066583,9.801134798327645e-07
520.3729704066583,9.83838427537579e-07
520.3929704066584,9.87486319059186e-07
520.4129704066584,9.910655899359955e-07
520.4329704066583,9.945841080473361e-07
520.4529704066583,9.980491881227602e-07
520.4729704066583,1.0014676092405347e-06
520.4929704066583,1.00484563479516e-06
520.5129704066584,1.0081890344427407e-06
520.5329704066584,1.0115031075653775e-06
520.5529704066583,1.0147927078315038e-06
520.5729704066583,1.0180622684656809e-06
520.5929704066583,1.0213158278803353e-06
520.6129704066583,1.0245570553601005e-06
520.6329704066584,1.0277892765278097e-06
520.6529804066583,1.031017110432809e-06
520.6729804066583,1.034240044606323e-06
520.6929804066583,1.0374621352481108e-06
520.7129804066583,1.0406855760674872e-06
520.7329804066584,1.0439123342107595e-06
520.7529804066584,1.0471441706923374e-06
520.7729804066583,1.0503826596504754e-06
520.7929804066583,1.0536292063975196e-06
520.8129804066583,1.0568850642541074e-06
520.8329804066583,1.0601513501728053e-06
520.8529804066583,1.0634290591707319e-06
520.8729804066584,1.066719077602313e-06
520.8929804066584,1.07002219531265e-06
520.9129804066583,1.0733391167197425e-06
520.9329804066583,1.0766704708788507e-06
520.9529804066583,1.0800168205868982e-06
520.9729804066583,1.083378670586958e-06
520.9929804066584,1.0867564749343728e-06
521.0129804066584,1.0901506435860705e-06
521.0329804066583,1.0935615482744447e-06
521.0529804066583,1.096989527724988e-06
521.0729804066583,1.100434892275607e-06
521.0929804066583,1.1038979279525793e-06
521.1129804066584,1.1073789000554727e-06
521.1329804066584,1.1108780563000816e-06
521.1529804066583,1.1143956295656363e-06
521.1729804066583,1.1179318402884778e-06
521.1929904066583,1.1214886808191503e-06
521.2129904066584,1.1250627976887476e-06
521.2329904066584,1.1286561582038373e-06
521.2529904066583,1.1322689512058003e-06
521.2729904066583,1.1359013610258669e-06
521.2929904066583,1.1395535684733963e-06
521.3129904066583,1.1432257516812282e-06
521.3329904066584,1.14691808682735e-06
521.3529904066584,1.150630748749703e-06
521.3729904066583,1.1543639114693665e-06
521.3929904066583,1.158117748634883e-06
521.4129904066583,1.1618924338994982e-06
521.4329904066583,1.165688141241206e-06
521.4529904066583,1.169505045234308e-06
521.4729904066584,1.173343321280048e-06
521.4929904066584,1.1772031458026126e-06
521.5129904066583,1.1810846964164467e-06
521.5329904066583,1.1849881520691428e-06
521.5529904066583,1.1889136931643506e-06
521.5729904066583,1.1928615016679336e-06
521.5929904066584,1.1968317612004224e-06
521.6129904066584,1.2008246571180052e-06
521.6329904066583,1.2048403765845114e-06
521.6529904066583,1.2088791086356328e-06
521.6729904066583,1.2129410442371623e-06
521.6929904066583,1.2170263763383244e-06
521.7130004066584,1.2211373603165816e-06
521.7330004066583,1.2252700843862147e-06
521.7530004066583,1.2294267962830137e-06
521.7730004066583,1.2336076973571415e-06
521.7930004066583,1.2378129911641514e-06
521.8130004066584,1.2420428835043232e-06
521.8330004066584,1.2462975824610258e-06
521.8530004066583,1.2505772984386815e-06
521.8730004066583,1.2548822442000294e-06
521.8930004066583,1.2592126349031565e-06
521.9130004066583,1.2635686881383124e-06
521.9330004066584,1.267950623964581e-06
521.9530004066584,1.2723586649463877e-06
521.9730004066583,1.2767930361902145e-06
521.9930004066583,1.2812539653811457e-06
522.0130004066583,1.285741682819583e-06
522.0330004066583,1.2902564214581156e-06
522.0530004066584,1.2947984169385545e-06
522.0730004066584,1.2993679076290786e-06
522.0930004066583,1.3039651346619224e-06
522.1130004066583,1.3085903419710977e-06
522.1330004066583,1.3132437763306486e-06
522.1530004066583,1.317925687393291e-06
522.1730004066583,1.3226363277295442e-06
522.1930004066584,1.3273759528674411e-06
522.2130004066584,1.3321448213326868e-06
522.2330004066583,1.3369431946897754e-06
522.2530104066583,1.341773759145607e-06
522.2730104066584,1.3466319544298432e-06
522.2930104066584,1.3515204580883123e-06
522.3130104066583,1.3564395442665868e-06
522.3330104066583,1.3613894903655555e-06
522.3530104066583,1.366370577087533e-06
522.3730104066583,1.3713830884833765e-06
522.3930104066583,1.3764273120006588e-06
522.4130104066584,1.3815035385330223e-06
522.4330104066584,1.386612062470502e-06
522.4530104066583,1.391753181751367e-06
522.4730104066583,1.396927197914865e-06
522.4930104066583,1.4021344161554062e-06
522.5130104066583,1.4073751453779664e-06
522.5330104066584,1.4126496982548876e-06
522.5530104066584,1.4179583912838394e-06
522.5730104066583,1.423301544847472e-06
522.5930104066583,1.4286794832741695e-06
522.6130104066583,1.4340925349003763e-06
522.6330104066583,1.4395410321343116e-06
522.6530104066584,1.4450253115212204e-06
522.6730104066584,1.4505457138098904e-06
522.6930104066583,1.4561025840210066e-06
522.7130104066583,1.4616962715166444e-06
522.7330104066583,1.46732713007145e-06
522.7530104066583,1.4729955179452465e-06
522.7730204066584,1.478704660636038e-06
522.7930204066583,1.4844492194625023e-06
522.8130204066583,1.4902324102342006e-06
522.8330204066583,1.496054609909844e-06
522.8530204066583,1.5019162003184984e-06
522.8730204066584,1.5078175682409667e-06
522.8930204066584,1.513759105492383e-06
522.9130204066583,1.5197412090065235e-06
522.9330204066583,1.5257642809211397e-06
522.9530204066583,1.5318287286648242e-06
522.9730204066583,1.537934965045175e-06
522.9930204066584,1.5440834083383574e-06
523.0130204066584,1.5502744823798314e-06
523.0330204066584,1.5565086166568096e-06
523.0530204066583,1.5627862464017557e-06
523.0730204066583,1.5691078126874872e-06
523.0930204066583,1.5754737625237104e-06
523.1130204066583,1.5818845489550774e-06
523.1330204066584,1.5883406311608708e-06
523.1530204066584,1.594842474556152e-06
523.1730204066583,1.6013905508949998e-06
523.1930204066583,1.607985338375221e-06
523.2130204066583,1.614627321745127e-06
523.2330204066583,1.621316992412299e-06
523.2530204066584,1.628054848554475e-06
523.2730204066584,1.6348413952324808e-06
523.2930204066583,1.6416771445058246e-06
523.3130304066583,1.6485660708100273e-06
523.3330304066583,1.6555018152952983e-06
523.3530304066584,1.6624883420053376e-06
523.3730304066584,1.669526192201434e-06
523.3930304066583,1.6766159147589573e-06
523.4130304066583,1.6837580662986873e-06
523.4330304066583,1.6909532113213653e-06
523.4530304066583,1.6982019223453456e-06
523.4730304066584,1.7055047800475268e-06
523.4930304066584,1.712862373407396e-06
523.5130304066583,1.7202752998549071e-06
523.5330304066583,1.7277441654214535e-06
523.5530304066583,1.7352695848946577e-06
523.5730304066583,1.742852181976807e-06
523.5930304066583,1.7504925894470548e-06
523.6130304066584,1.7581914493275874e-06
523.6330304066583,1.7659494130534754e-06
523.6530304066583,1.7737671416470883e-06
523.6730304066583,1.7816453058961502e-06
523.6930304066583,1.7895845865363135e-06
523.7130304066583,1.7975856744379807e-06
523.7330304066584,1.8056492707976096e-06
523.7530304066584,1.8137760873332912e-06
523.7730304066583,1.821966846485398e-06
523.7930304066583,1.830222281621449e-06
523.8130304066583,1.8385431372459885e-06
523.8330404066584,1.8469343794111823e-06
523.8530404066584,1.8553883888186968e-06
523.8730404066583,1.8639101216149775e-06
523.8930404066583,1.8725003690557793e-06
523.9130404066583,1.8811599346580108e-06
523.9330404066583,1.8898896344401732e-06
523.9530404066584,1.8986902971683014e-06
523.9730404066584,1.90756276460724e-06
523.9930404066583,1.9165078917780897e-06
524.0130404066583,1.925526547221042e-06
524.0330404066583,1.934619613264387e-06
524.0530404066583,1.9437879862996648e-06
524.0730404066584,1.953032577063159e-06
524.0930404066584,1.9623543109236692e-06
524.1130404066583,1.9717541281775016e-06
524.1330404066583,1.981232984349874e-06
524.1530404066583,1.9907918505037436e-06
524.1730404066583,2.0004317135559963e-06
524.1930404066584,2.01015357660138e-06
524.2130404066584,2.019958459244063e-06
524.2330404066583,2.029847397937992e-06
524.2530404066583,2.0398214463351934e-06
524.2730404066583,2.0498816756431485e-06
524.2930404066583,2.0600291749912326e-06
524.3130404066583,2.070265051806511e-06
524.3330404066584,2.080590432199388e-06
524.3530404066584,2.0910064613588946e-06
524.3730504066583,2.1015195810418272e-06
524.3930504066583,2.112120468456258e-06
524.4130504066584,2.122815559397908e-06
524.4330504066584,2.13360607954853e-06
524.4530504066583,2.1444932758081137e-06
524.4730504066583,2.155478416756931e-06
524.4930504066583,2.166562793130039e-06
524.5130504066583,2.1777477183043377e-06
524.5330504066583,2.1890345287984844e-06
524.5530504066584,2.200424584786154e-06
524.5730504066584,2.2119192706225685e-06
524.5930504066583,2.223519995385713e-06
524.6130504066583,2.235228193431239e-06
524.6330504066583,2.247045324962604e-06
524.6530504066583,2.258972876616354e-06
524.6730504066584,2.271012362063252e-06
524.6930504066584,2.283165322625346e-06
524.7130504066583,2.295433327910414e-06
524.7330504066583,2.3078179764631743e-06
524.7530504066583,2.320320896434669e-06
524.7730504066583,2.332943746270225e-06
524.7930504066584,2.3456882154166165e-06
524.8130504066584,2.358556025048795e-06
524.8330504066583,2.37154892881798e-06
524.8530504066583,2.384668713620303e-06
524.8730504066583,2.397917200388062e-06
524.8930504066583,2.4112962449037524e-06
524.9130604066584,2.4248145278338242e-06
524.9330604066583,2.4384604664849712e-06
524.9530604066583,2.4522427488282865e-06
524.9730604066583,2.4661633786967605e-06
524.9930604066583,2.4802243992195447e-06
525.0130604066584,2.4944278937927822e-06
525.0330604066584,2.508775987079589e-06
525.0530604066583,2.5232708460415427e-06
525.0730604066583,2.5379146810011576e-06
525.0930604066583,2.5527097467377493e-06
525.1130604066583,2.5676583436174372e-06
525.1330604066584,2.582762818758713e-06
525.1530604066584,2.5980255672343537e-06
525.1730604066584,2.6134490333123905e-06
525.1930604066583,2.6290357117358287e-06
525.2130604066583,2.6447881490438384e-06
525.2330604066583,2.6607089449355356e-06
525.2530604066583,2.676800753677969e-06
525.2730604066584,2.693066285560131e-06
525.2930604066584,2.709508308394114e-06
525.3130604066583,2.726129649066707e-06
525.3330604066583,2.7429331951413404e-06
525.3530604066583,2.75992189651384e-06
525.3730604066583,2.7770987671234143e-06
525.3930604066584,2.794466886721162e-06
525.4130604066584,2.8120294026978603e-06
525.4330704066583,2.82979846201271e-06
525.4530704066583,2.8477595942806705e-06
525.4730704066583,2.865924991865631e-06
525.4930704066584,2.8842980923147345e-06
525.5130704066584,2.9028824109363493e-06
525.5330704066583,2.921681543039319e-06
525.5530704066583,2.940699166249478e-06
525.5730704066583,2.9599390429081533e-06
525.5930704066583,2.979405022555427e-06
525.6130704066584,2.999101044501888e-06
525.6330704066584,3.0190311404919827e-06
525.6530704066583,3.0391994374644837e-06
525.6730704066583,3.0596101604121094e-06
525.6930704066583,3.0802676353462823e-06
525.7130704066583,3.1011762923709556e-06
525.7330704066584,3.1223406688706943e-06
525.7530704066584,3.1437654128173726e-06
525.7730704066583,3.1654552862027727e-06
525.7930704066583,3.187415168600399e-06
525.8130704066583,3.209650060864379e-06
525.8330704066583,3.2321650889711704e-06
525.8530704066584,3.2549655080109703e-06
525.8730704066584,3.2780567063353457e-06
525.8930704066584,3.3014442098704157e-06
525.9130704066583,3.325133686601044e-06
525.9330704066583,3.349130951236326e-06
525.9530704066583,3.3734419700645305e-06
525.9730804066584,3.3980852625056734e-06
525.9930804066584,3.423042485060009e-06
526.0130804066583,3.448332325009374e-06
526.0330804066583,3.473961407726988e-06
526.0530804066583,3.499936537634169e-06
526.0730804066583,3.52626470440989e-06
526.0930804066584,3.55295308946836e-06
526.1130804066584,3.5800090727177485e-06
526.1330804066583,3.6074402396172595e-06
526.1530804066583,3.635254388545246e-06
526.1730804066583,3.6634595384975744e-06
526.1930804066583,3.6920639371331114e-06
526.2130804066584,3.7210760691858015e-06
526.2330804066584,3.750504665262616e-06
526.2530804066583,3.7803587110515505e-06
526.2730804066583,3.810647456959499e-06
526.2930804066583,3.841380428207228e-06
526.3130804066583,3.872567435406912e-06
526.3330804066584,3.9042185856509844e-06
526.3530804066584,3.936344294141367e-06
526.3730804066583,3.968955296394749e-06
526.3930804066583,4.002062661054986e-06
526.4130804066583,4.035677803353073e-06
526.4330804066583,4.069812499254375e-06
526.4530804066583,4.10447890033669e-06
526.4730804066584,4.139689549446925e-06
526.4930904066583,4.175475422691976e-06
526.5130904066583,4.211814133492732e-06
526.5330904066583,4.248737244839964e-06
526.5530904066584,4.2862590389034765e-06
526.5730904066584,4.324394281035686e-06
526.5930904066583,4.363158241339234e-06
526.6130904066583,4.402566717476168e-06
526.6330904066583,4.4426360588149556e-06
526.6530904066583,4.483383192016209e-06
526.6730904066583,4.524825648169422e-06
526.6930904066584,4.566981591604919e-06
526.7130904066584,4.609869850516347e-06
526.7330904066583,4.653509949548697e-06
526.7530904066583,4.697922144515413e-06
526.7730904066583,4.743127459434966e-06
526.7930904066583,4.789147726094284e-06
526.8130904066584,4.836005626372219e-06
526.8330904066584,4.883724737582534e-06
526.8530904066583,4.932329581132783e-06
526.8730904066583,4.981845674822727e-06
526.8930904066583,5.03229958915656e-06
526.9130904066583,5.08371900808475e-06
526.9330904066584,5.136132794647858e-06
526.9530904066584,5.189571062053864e-06
526.9730904066583,5.244065250797403e-06
526.9930904066583,5.2996482124995496e-06
527.0130904066583,5.3563543012489195e-06
527.0331004066584,5.414248702034093e-06
527.0531004066584,5.4733112331025615e-06
527.0731004066583,5.533610033781741e-06
527.0931004066583,5.595186565916905e-06
527.1131004066583,5.658084398474556e-06
527.1331004066583,5.7223493671868956e-06
527.1531004066584,5.788029751017462e-06
527.1731004066584,5.85517646758201e-06
527.1931004066583,5.92384328994848e-06
527.2131004066583,5.99408708754279e-06
527.2331004066583,6.06596809425349e-06
527.2531004066583,6.139550207213149e-06
527.2731004066584,6.21490132017421e-06
527.2931004066584,6.292093695875882e-06
527.3131004066584,6.371204382339344e-06
527.3331004066583,6.452315678597171e-06
527.3531004066583,6.535515656014754e-06
527.3731004066583,6.620898742046058e-06
527.3931004066583,6.708566374018078e-06
527.4131004066584,6.798627731345778e-06
527.4331004066584,6.891200555437957e-06
527.4531004066583,6.986412067482278e-06
527.4731004066583,7.084399995247157e-06
527.4931004066583,7.185313721068026e-06
527.5131004066583,7.289315564225697e-06
527.5331004066584,7.39658221200655e-06
527.5531004066584,7.507306314824258e-06
527.5731104066583,7.62175641278862e-06
527.5931104066583,7.740048315964294e-06
527.6131104066583,7.862490301846532e-06
527.6331104066584,7.989358717819029e-06
527.6531104066584,8.120956925893595e-06
527.6731104066583,8.257618264251746e-06
527.6931104066583,8.399709308530928e-06
527.7131104066583,8.547633455062042e-06
527.7331104066583,8.70183484839126e-06
527.7531104066584,8.86280267526844e-06
527.7731104066584,9.031075846772226e-06
527.7931104066583,9.207248089350555e-06
527.8131104066583,9.391973464151794e-06
527.8331104066583,9.585972332161622e-06
527.8531104066583,9.790037780169287e-06
527.8731104066584,1.0005042519485142e-05
527.8931104066584,1.0231946265516484e-05
527.9131104066583,1.0471803601782332e-05
527.9331104066583,1.0725772326556722e-05
527.9531104066583,1.0995122274187754e-05
527.9731104066583,1.1281244596062843e-05
527.9931104066584,1.1585661478259146e-05
528.0131104066584,1.1910036264070283e-05
528.0331104066584,1.2256183939914377e-05
528.0531104066583,1.2626081932487685e-05
528.0731104066583,1.3021881153693643e-05
528.0931204066583,1.3446136712277524e-05
528.1131204066584,1.3900957287869631e-05
528.1331204066583,1.4389286649656012e-05
528.1531204066583,1.4914082247673209e-05
528.1731204066583,1.547853085877959e-05
528.1931204066583,1.6086059066656004e-05
528.2131204066583,1.674034317849911e-05
528.2331204066584,1.7445318408088148e-05
528.2531204066584,1.8205187142339636e-05
528.2731204066583,1.902442609705513e-05
528.2931204066583,1.990779215727697e-05
528.3131204066583,2.0860326689339318e-05
528.3331204066583,2.1887358105167572e-05
528.3531204066584,2.2994502455315853e-05
528.3731204066584,2.4187661825780754e-05
528.3931204066583,2.5473020315373073e-05
528.4131204066583,2.685703737513964e-05
528.4331204066583,2.834643830007193e-05
528.4531204066583,2.9948201675572386e-05
528.4731204066584,3.166954359759418e-05
528.4931204066584,3.351789850586118e-05
528.5131204066583,3.550089649459578e-05
528.5331204066583,3.7626336993916505e-05
528.5531204066583,3.99021587486705e-05
528.5731204066583,4.23364060585725e-05
528.5931204066583,4.49371912846989e-05
528.6131204066584,4.7712653671979304e-05
528.6331304066583,5.067244078536564e-05
528.6531304066583,5.382165292871875e-05
528.6731304066583,5.716966056203416e-05
528.6931304066584,6.07242293816123e-05
528.7131304066584,6.44928959881184e-05
528.7331304066583,6.848290845727086e-05
528.7531304066583,7.27011650047327e-05
528.7731304066583,7.715415120907673e-05
528.7931304066583,8.184787630365914e-05
528.8131304066583,8.678780909178762e-05
528.8331304066584,9.197881407810268e-05
528.8531304066584,9.742508844158515e-05
528.8731304066583,0.00010313010050227683
528.8931304066583,0.00010909653035136612
528.9131304066583,0.00011532621332577141
528.9331304066583,0.00012182008700946297
