Energy,O1_XAS
519.7199699732424,5.501455403506764e-07
519.7399699732424,5.720506567236719e-07
519.7599699732424,5.940148868295813e-07
519.7799699732424,6.159938411632795e-07
519.7999699732425,6.37943328139085e-07
519.8199699732425,6.598196446191519e-07
519.8399699732424,6.815798605620337e-07
519.8599699732424,7.03182094715381e-07
519.8799699732424,7.245857784213887e-07
519.8999699732424,7.457519047848398e-07
519.9199699732425,7.666432606784597e-07
519.9399699732425,7.872246393187695e-07
519.9599699732424,8.074630314382049e-07
519.9799699732424,8.273277933902406e-07
519.9999799732424,8.468004175037255e-07
520.0199799732425,8.658359242953273e-07
520.0399799732425,8.844213626533372e-07
520.0599799732424,9.025367334618983e-07
520.0799799732424,9.20164863598232e-07
520.0999799732424,9.372914200271105e-07
520.1199799732424,9.53904898852338e-07
520.1399799732425,9.699965903572183e-07
520.1599799732425,9.855605213366526e-07
520.1799799732424,1.0005933762667691e-06
520.1999799732424,1.01509439906315e-06
520.2199799732424,1.0290652773550287e-06
520.2399799732424,1.0425100113375233e-06
520.2599799732425,1.055434769363736e-06
520.2799799732425,1.067847732500167e-06
520.2999799732424,1.0797589302958806e-06
520.3199799732424,1.0911800700040007e-06
520.3399799732424,1.102124361454524e-06
520.3599799732424,1.1126063397032226e-06
520.3799799732424,1.122641687482104e-06
520.3999799732425,1.1322470593529403e-06
520.4199799732424,1.14143990932079e-06
520.4399799732424,1.1502383235046046e-06
520.4599799732424,1.15866085928647e-06
520.4799799732424,1.1667263921802169e-06
520.4999799732424,1.1744539714710377e-06
520.5199899732424,1.1818663132653887e-06
520.5399899732424,1.1889750197572768e-06
520.5599899732424,1.1958026772237411e-06
520.5799899732424,1.2023677879456655e-06
520.5999899732424,1.208688461412282e-06
520.6199899732425,1.2147823343372467e-06
520.6399899732425,1.2206665017832575e-06
520.6599899732424,1.2263574591217836e-06
520.6799899732424,1.231871054441984e-06
520.6999899732424,1.2372224509286407e-06
520.7199899732424,1.2424260986487067e-06
520.7399899732425,1.24749571512257e-06
520.7599899732425,1.2524442740075777e-06
520.7799899732424,1.2572840011880836e-06
520.7999899732424,1.2620263775452906e-06
520.8199899732424,1.2666821476736057e-06
520.8399899732424,1.271261333813762e-06
520.8599899732425,1.2757732542872014e-06
520.8799899732425,1.2802265457390497e-06
520.8999899732424,1.2846291885280191e-06
520.9199899732424,1.2889885346371778e-06
520.9399899732424,1.293311337521896e-06
520.9599899732424,1.2976037833556646e-06
520.9799899732425,1.301871523182122e-06
520.9999899732425,1.3061197055301745e-06
521.0199899732424,1.3103530090986991e-06
521.0399899732424,1.314575675165215e-06
521.0599999732424,1.3187936462440643e-06
521.0799999732425,1.323006168940861e-06
521.0999999732425,1.3272184689321562e-06
521.1199999732424,1.3314333467513755e-06
521.1399999732424,1.3356533145551026e-06
521.1599999732424,1.3398806221312332e-06
521.1799999732424,1.3441172814114908e-06
521.1999999732425,1.3483650894502676e-06
521.2199999732425,1.352625649855813e-06
521.2399999732424,1.3569003926810833e-06
521.2599999732424,1.361190592798558e-06
521.2799999732424,1.3654973867989318e-06
521.2999999732424,1.3698217884650893e-06
521.3199999732424,1.3741647028824419e-06
521.3399999732425,1.3785269392538655e-06
521.3599999732425,1.3829092224923804e-06
521.3799999732424,1.3873122036685463e-06
521.3999999732424,1.3917364693902524e-06
521.4199999732424,1.3961825501938976e-06
521.4399999732424,1.4006509280244135e-06
521.4599999732425,1.405142042880119e-06
521.4799999732425,1.4096562986955313e-06
521.4999999732424,1.4141940685326787e-06
521.5199999732424,1.4187556991469617e-06
521.5399999732424,1.4233415149904683e-06
521.5599999732424,1.4279518217112027e-06
521.5799999732425,1.4325869092024344e-06
521.6000099732424,1.4372493906369235e-06
521.6200099732424,1.4419348719501868e-06
521.6400099732424,1.4466459340790483e-06
521.6600099732424,1.4513828270553778e-06
521.6800099732425,1.4561457952638176e-06
521.7000099732425,1.460935078701321e-06
521.7200099732424,1.465750914055064e-06
521.7400099732424,1.4705935356225096e-06
521.7600099732424,1.475463176095674e-06
521.7800099732424,1.4803600672284712e-06
521.8000099732425,1.4852844404039029e-06
521.8200099732425,1.4902365271155615e-06
521.8400099732424,1.4952165593766257e-06
521.8600099732424,1.500224770066844e-06
521.8800099732424,1.5052613932274985e-06
521.9000099732424,1.5103266643124263e-06
521.9200099732425,1.5154208204022367e-06
521.9400099732425,1.5205441003876135e-06
521.9600099732424,1.5256967451272684e-06
521.9800099732424,1.530878997584408e-06
522.0000099732424,1.536091102945784e-06
522.0200099732424,1.5413333087263503e-06
522.0400099732424,1.5466058648621267e-06
522.0600099732425,1.551909023793552e-06
522.0800099732425,1.5572430405409067e-06
522.1000099732424,1.5626081727738521e-06
522.1200199732424,1.568007387021377e-06
522.1400199732424,1.5734355500352351e-06
522.1600199732425,1.5788956181978385e-06
522.1800199732425,1.5843878603856605e-06
522.2000199732424,1.5899125484146345e-06
522.2200199732424,1.5954699570916394e-06
522.2400199732424,1.601060364265046e-06
522.2600199732424,1.6066840508744518e-06
522.2800199732425,1.6123413009998503e-06
522.3000199732425,1.618032401910247e-06
522.3200199732424,1.623757644112319e-06
522.3400199732424,1.6295173213985905e-06
522.3600199732424,1.6353117308957033e-06
522.3800199732424,1.6411411731126448e-06
522.4000199732425,1.6470059519890994e-06
522.4200199732425,1.6529063749437287e-06
522.4400199732424,1.6588427529230006e-06
522.4600199732424,1.6648154004498983e-06
522.4800199732424,1.6708246356731187e-06
522.5000199732424,1.6768707804165866e-06
522.5200199732424,1.6829541602293998e-06
522.5400199732425,1.6890751044362814e-06
522.5600199732424,1.6952339461884729e-06
522.5800199732424,1.70143102251555e-06
522.6000199732424,1.7076666743776403e-06
522.6200199732424,1.713941246718588e-06
522.6400199732424,1.7202550885199467e-06
522.6600299732424,1.7266117395581075e-06
522.6800299732424,1.733005203731399e-06
522.7000299732424,1.7394390092722304e-06
522.7200299732424,1.7459135218749036e-06
522.7400299732424,1.7524291115568928e-06
522.7600299732425,1.75898615271956e-06
522.7800299732424,1.7655850242099945e-06
522.8000299732424,1.7722261093846289e-06
522.8200299732424,1.7789097961739238e-06
522.8400299732424,1.785636477148729e-06
522.8600299732424,1.792406549588145e-06
522.8800299732425,1.7992204155490331e-06
522.9000299732425,1.8060784819369151e-06
522.9200299732424,1.8129811605789628e-06
522.9400299732424,1.8199288682983083e-06
522.9600299732424,1.8269220269902504e-06
522.9800299732424,1.8339610637002422e-06
523.0000299732425,1.841046410703699e-06
523.0200299732425,1.8481785055874478e-06
523.0400299732424,1.8553577913334353e-06
523.0600299732424,1.8625847164039227e-06
523.0800299732424,1.8698597348287691e-06
523.1000299732424,1.8771833062945892e-06
523.1200299732425,1.884555896235879e-06
523.1400299732425,1.8919779759278417e-06
523.1600299732424,1.8994500225815613e-06
523.1800399732424,1.9069762933893033e-06
523.2000399732424,1.9145497554219412e-06
523.2200399732425,1.9221746528911383e-06
523.2400399732425,1.92985148774122e-06
523.2600399732424,1.9375807683553617e-06
523.2800399732424,1.945363009661534e-06
523.3000399732424,1.953198733240459e-06
523.3200399732424,1.9610884674352665e-06
523.3400399732425,1.9690327474629514e-06
523.3600399732425,1.977032115527325e-06
523.3800399732424,1.985087120934175e-06
523.4000399732424,1.9931983202076273e-06
523.4200399732424,2.0013662772085255e-06
523.4400399732424,2.0095915632544904e-06
523.4600399732424,2.0178747572417275e-06
523.4800399732425,2.0262164457687506e-06
523.5000399732425,2.0346172232616797e-06
523.5200399732424,2.0430776921020145e-06
523.5400399732424,2.0515984627558953e-06
523.5600399732424,2.060180153905714e-06
523.5800399732424,2.0688233925838955e-06
523.6000399732425,2.077528814309022e-06
523.6200399732425,2.086297063224115e-06
523.6400399732424,2.0951287922380018e-06
523.6600399732424,2.104024663168814e-06
523.6800399732424,2.112985346890549e-06
523.7000399732424,2.122011523482558e-06
523.7200499732425,2.1311084452315206e-06
523.7400499732424,2.1402677190062337e-06
523.7600499732424,2.149494583019299e-06
523.7800499732424,2.158789755734238e-06
523.8000499732424,2.168153965615942e-06
523.8200499732425,2.177587951300597e-06
523.8400499732425,2.18709246176915e-06
523.8600499732424,2.1966682565253194e-06
523.8800499732424,2.2063161057771157e-06
523.9000499732424,2.2160367906228753e-06
523.9200499732424,2.2258311032415346e-06
523.9400499732425,2.2356998470873973e-06
523.9600499732425,2.2456438370891682e-06
523.9800499732424,2.25566389985422e-06
524.0000499732424,2.2657608738770474e-06
524.0200499732424,2.2759356097528962e-06
524.0400499732424,2.286188970396329e-06
524.0600499732425,2.296521831264955e-06
524.0800499732425,2.306935080588075e-06
524.1000499732424,2.317429619601251e-06
524.1200499732424,2.3280063627857124e-06
524.1400499732424,2.338666238113618e-06
524.1600499732424,2.349410187298882e-06
524.1800499732424,2.3602391660538063e-06
524.2000499732425,2.3711541443515843e-06
524.2200499732425,2.382156106694514e-06
524.2400599732424,2.3932516195371196e-06
524.2600599732424,2.4044306077288265e-06
524.2800599732424,2.4156996239437192e-06
524.3000599732425,2.4270597136168936e-06
524.3200599732425,2.4385119381481917e-06
524.3400599732424,2.450057375209152e-06
524.3600599732424,2.461697119056063e-06
524.3800599732424,2.4734322808502395e-06
524.4000599732424,2.4852639889852945e-06
524.4200599732425,2.497193389421704e-06
524.4400599732425,2.5092216460284006e-06
524.4600599732424,2.521349940932668e-06
524.4800599732424,2.533579474877108e-06
524.5000599732424,2.5459114675850154e-06
524.5200599732424,2.558347158133904e-06
524.5400599732425,2.5708878053376938e-06
524.5600599732425,2.583534688137294e-06
524.5800599732424,2.596289106001047e-06
524.6000599732424,2.6091523793338556e-06
524.6200599732424,2.6221258498964348e-06
524.6400599732424,2.6352108812345487e-06
524.6600599732424,2.648408859118699e-06
524.6800599732425,2.6617211919946447e-06
524.7000599732424,2.6751493114447184e-06
524.7200599732424,2.688694672661387e-06
524.7400599732424,2.702358754931936e-06
524.7600599732424,2.7161430621357526e-06
524.7800699732425,2.7300561069967097e-06
524.8000699732424,2.7440855386832917e-06
524.8200699732424,2.758239860454579e-06
524.8400699732424,2.772520679801788e-06
524.8600699732424,2.7869296314910847e-06
524.8800699732424,2.801468378141953e-06
524.9000699732425,2.816138610820428e-06
524.9200699732424,2.8309420496471796e-06
524.9400699732424,2.845880444421938e-06
524.9600699732424,2.860955575263139e-06
524.9800699732424,2.876169253264355e-06
525.0000699732424,2.891523321167487e-06
525.0200699732425,2.9070196540534086e-06
525.0400699732425,2.922660160049875e-06
525.0600699732424,2.938446781058705e-06
525.0800699732424,2.9543814935008812e-06
525.1000699732424,2.9704663090815352e-06
525.1200699732424,2.9867032755748853e-06
525.1400699732425,3.0030944776299294e-06
525.1600699732425,3.01964203759706e-06
525.1800699732424,3.0363481163776497e-06
525.2000699732424,3.053214914295587e-06
525.2200699732424,3.0702446719928452e-06
525.2400699732424,3.0874396713494497e-06
525.2600699732425,3.1048022364288066e-06
525.2800699732425,3.122334734448806e-06
525.3000699732424,3.140039576780965e-06
525.3200799732424,3.157928203935918e-06
525.3400799732424,3.1759852400684563e-06
525.3600799732425,3.194222131248447e-06
525.3800799732425,3.212641476048493e-06
525.4000799732424,3.2312459226306694e-06
525.4200799732424,3.250038169929203e-06
525.4400799732424,3.269020968868304e-06
525.4600799732424,3.288197123615838e-06
525.4800799732425,3.3075694928743067e-06
525.5000799732425,3.3271409912098033e-06
525.5200799732424,3.346914590421961e-06
525.5400799732424,3.3668933209541515e-06
525.5600799732424,3.3870802733469956e-06
525.5800799732424,3.407478599736115e-06
525.6000799732424,3.4280915153957995e-06
525.6200799732425,3.448922300330349e-06
525.6400799732425,3.469974300914133e-06
525.6600799732424,3.4912509315838225e-06
525.6800799732424,3.512755676582427e-06
525.7000799732424,3.534492091758625e-06
525.7200799732424,3.5564638064228464e-06
525.7400799732425,3.578674525262294e-06
525.7600799732425,3.6011280303162863e-06
525.7800799732424,3.6238281830161273e-06
525.8000799732424,3.646778926289141e-06
525.8200799732424,3.6699842867312956e-06
525.8400899732425,3.693460174306881e-06
525.8600899732425,3.717187327367932e-06
525.8800899732424,3.741181704362753e-06
525.9000899732424,3.7654476897810204e-06
525.9200899732424,3.7899897637541125e-06
525.9400899732424,3.814812504691135e-06
525.9600899732425,3.839920592002966e-06
525.9800899732425,3.865318808916696e-06
526.0000899732424,3.891012045386271e-06
526.0200899732424,3.917005301100172e-06
526.0400899732424,3.943303688592213e-06
526.0600899732424,3.969912436458806e-06
526.0800899732425,3.996836892687246e-06
526.1000899732425,4.024082528098813e-06
526.1200899732424,4.051654939913751e-06
526.1400899732424,4.079559855440198e-06
526.1600899732424,4.107803135894778e-06
526.1800899732424,4.136390780359582e-06
526.2000899732425,4.1653289298817824e-06
526.2200899732425,4.194623871721329e-06
526.2400899732424,4.2242820437557394e-06
526.2600899732424,4.254310039045614e-06
526.2800899732424,4.2847146105709215e-06
526.3000899732424,4.315502676144622e-06
526.3200899732424,4.346681323512024e-06
526.3400899732425,4.378257815644736e-06
526.3600899732425,4.410239596237053e-06
526.3800999732424,4.4426505973444875e-06
526.4000999732424,4.475466249966765e-06
526.4200999732425,4.508710668760316e-06
526.4400999732425,4.542392079801375e-06
526.4600999732424,4.576518920783208e-06
526.4800999732424,4.611099847952881e-06
526.5000999732424,4.646143743331362e-06
526.5200999732424,4.6816597222296076e-06
526.5400999732424,4.7176571410758256e-06
526.5600999732425,4.754145605569491e-06
526.5800999732425,4.791134979177694e-06
526.6000999732424,4.828635391994287e-06
526.6200999732424,4.866657249976465e-06
526.6400999732424,4.905211244581629e-06
526.6600999732424,4.944308362824365e-06
526.6800999732425,4.983959897776321e-06
526.7000999732425,5.024177459531588e-06
526.7200999732424,5.064972986666206e-06
526.7400999732424,5.106358758214556e-06
526.7600999732424,5.148347406194815e-06
526.7800999732424,5.190951928713142e-06
526.8000999732425,5.234185703680121e-06
526.8200999732425,5.278062503173316e-06
526.8400999732424,5.322596508487836e-06
526.8600999732424,5.367802325910565e-06
526.8800999732424,5.4136950032657135e-06
526.9001099732425,5.460313523124783e-06
526.9201099732425,5.5076272809033855e-06
526.9401099732424,5.555675877701001e-06
526.9601099732424,5.604476310342491e-06
526.9801099732424,5.654046113269041e-06
527.0001099732424,5.704403380839767e-06
527.0201099732424,5.755566790826493e-06
527.0401099732425,5.807555629185095e-06
527.0601099732424,5.860389816192073e-06
527.0801099732424,5.914089934049874e-06
527.1001099732424,5.9686772560636755e-06
527.1201099732424,6.0241737775133815e-06
527.1401099732424,6.080602248350639e-06
527.1601099732425,6.137986207866246e-06
527.1801099732425,6.19635002148675e-06
527.2001099732424,6.2557189198826894e-06
527.2201099732424,6.316119040579772e-06
527.2401099732424,6.377577472297592e-06
527.2601099732424,6.440122302259674e-06
527.2801099732425,6.503782666749482e-06
527.3001099732425,6.568588805218021e-06
527.3201099732424,6.6345721182928445e-06
527.3401099732424,6.701765230069379e-06
527.3601099732424,6.770202055126066e-06
527.3801099732424,6.839917870753295e-06
527.4001099732425,6.910949394952455e-06
527.4201099732425,6.983334870829919e-06
527.4401199732424,7.057151403233065e-06
527.4601199732424,7.132366806029552e-06
527.4801199732424,7.209061018124256e-06
527.5001199732425,7.287279382844675e-06
527.5201199732425,7.36706931501445e-06
527.5401199732424,7.448480442393902e-06
527.5601199732424,7.531564760947027e-06
527.5801199732424,7.616376805632309e-06
527.6001199732424,7.702973838625939e-06
527.6201199732425,7.791416057136851e-06
527.6401199732425,7.881766823245247e-06
527.6601199732424,7.974092918514996e-06
527.6801199732424,8.06846482645481e-06
527.7001199732424,8.164957046300428e-06
527.7201199732424,8.263648441997399e-06
527.7401199732424,8.364622630728405e-06
527.7601199732425,8.467968415832941e-06
527.7801199732424,8.573780269512815e-06
527.8001199732424,8.68215887132579e-06
527.8201199732424,8.793211709093424e-06
527.8401199732424,8.907053749561852e-06
527.8601199732424,9.02380818688029e-06
527.8801199732425,9.143607277751723e-06
527.9001199732425,9.266593272929672e-06
527.9201199732424,9.392919455613506e-06
527.9401199732424,9.52275129816465e-06
527.9601199732424,9.656267749507916e-06
527.9801299732425,9.793732368413746e-06
528.0001299732425,9.935218205376498e-06
528.0201299732424,1.0081021596183877e-05
528.0401299732424,1.023139137866797e-05
528.0601299732424,1.0386598762695382e-05
528.0801299732424,1.0546939712435437e-05
528.1001299732425,1.0712737570677558e-05
528.1201299732425,1.0884345943969634e-05
528.1401299732424,1.1062151867724107e-05
528.1601299732424,1.1246579270559912e-05
528.1801299732424,1.1438092757096635e-05
528.2001299732424,1.1637201728031803e-05
528.2201299732425,1.1844464855652886e-05
528.2401299732425,1.2060494931870964e-05
528.2601299732424,1.2285964104421589e-05
528.2801299732424,1.2521609514913462e-05
528.3001299732424,1.2768239350023857e-05
528.3201299732424,1.302673931415005e-05
528.3401299732425,1.3298079528291386e-05
528.3601299732425,1.3583321855769186e-05
528.3801299732424,1.3883627650628252e-05
528.4001299732424,1.4200265919058987e-05
528.4201299732424,1.453462187811449e-05
528.4401299732424,1.4888205889184864e-05
528.4601299732424,1.526266273627474e-05
528.4801299732425,1.5659781211087034e-05
528.5001399732424,1.6081721318074885e-05
528.5201399732424,1.653016879597293e-05
528.5401399732424,1.700760891826991e-05
528.5601399732425,1.7516506763469543e-05
528.5801399732425,1.805952199188082e-05
528.6001399732424,1.8639518961281828e-05
528.6201399732424,1.9259576621039968e-05
528.6401399732424,1.9922998069890755e-05
528.6601399732424,2.063331965338299e-05
528.6801399732424,2.1394319468617754e-05
528.7001399732425,2.221002513647746e-05
528.7201399732425,2.3084720695292196e-05
528.7401399732424,2.40229524652339e-05
528.7601399732424,2.5029533729528635e-05
528.7801399732424,2.610954807766409e-05
528.8001399732424,2.7268351256799665e-05
528.8201399732425,2.8511571381173273e-05
528.8401399732425,2.984510735541054e-05
528.8601399732424,3.1275125376743026e-05
528.8801399732424,3.280805339275935e-05
528.9001399732424,3.4450573406418705e-05
528.9201399732424,3.620961153779833e-05
528.9401399732425,3.809232577299399e-05
528.9601399732425,4.01060913543041e-05
528.9801399732424,4.2258483792600735e-05
529.0001399732424,4.455725951146901e-05
529.0201399732424,4.7010334164336236e-05
529.0401499732425,4.9627108375897765e-05
529.0601499732425,5.2413130263930896e-05
529.0801499732424,5.537790762561656e-05
529.1001499732424,5.85297330053686e-05
529.1201499732424,6.18769186551979e-05
529.1401499732424,6.54277636680511e-05
529.1601499732425,6.919052003401247e-05
529.1801499732425,7.317335792943572e-05
529.2001499732424,7.738433057564542e-05
529.2201499732424,8.183133902504645e-05
529.2401499732424,8.652209725026132e-05
529.2601499732424,9.146409792290922e-05
529.2801499732424,9.666457927397529e-05
529.3001499732425,0.00010213049342612116
529.3201499732425,0.00010786847657923215
529.3401499732424,0.00011388482141473141
