Energy,O1_XES
490.2199699732424,6.455403812347857e-07
490.2399699732424,6.658440099929773e-07
490.25996997324245,6.861750739190252e-07
490.27996997324243,7.065072350570101e-07
490.2999699732424,7.26814376629797e-07
490.31996997324245,7.470707185693425e-07
490.33996997324243,7.672509303603205e-07
490.3599699732424,7.873302403844344e-07
490.3799699732424,8.072845409879698e-07
490.39996997324243,8.270904885415952e-07
490.4199699732424,8.467255978113597e-07
490.43996997324246,8.661683300195463e-07
490.45996997324244,8.853981740352092e-07
490.4799699732424,9.043957202059865e-07
490.49997997324243,9.231520343583253e-07
490.5199799732424,9.416313461239873e-07
490.53997997324245,9.59827352095596e-07
490.55997997324243,9.77725627309273e-07
490.5799799732424,9.953130951252067e-07
490.5999799732424,1.0125780508282094e-06
490.61997997324244,1.0295101765750925e-06
490.6399799732424,1.0461005478118817e-06
490.65997997324246,1.062341631356585e-06
490.67997997324244,1.0782272754082411e-06
490.6999799732424,1.0937526918083223e-06
490.7199799732424,1.10891443093507e-06
490.73997997324244,1.1237103496650656e-06
490.7599799732424,1.1381395728802827e-06
490.7799799732424,1.15220244903912e-06
490.79997997324244,1.1659005003606178e-06
490.8199799732424,1.1792363681977596e-06
490.8399799732424,1.192213754194225e-06
490.85997997324245,1.2048373578298782e-06
490.8799799732424,1.2171128109663471e-06
490.8999799732424,1.2290466100029643e-06
490.91997997324245,1.2406460462449155e-06
490.93997997324243,1.2519191350733917e-06
490.9599799732424,1.2628745444891245e-06
490.97997997324245,1.2735215235764637e-06
490.99997997324243,1.2838698314085577e-06
491.01998997324245,1.2939346263954897e-06
491.0399899732424,1.3037164231981708e-06
491.0599899732424,1.3132311970893499e-06
491.07998997324245,1.3224900614386007e-06
491.09998997324243,1.3315043065603231e-06
491.1199899732424,1.3402853402385351e-06
491.13998997324245,1.3488446313135838e-06
491.15998997324243,1.3571936565412718e-06
491.1799899732424,1.3653438508930784e-06
491.19998997324245,1.3733065614250096e-06
491.21998997324243,1.381093004803953e-06
491.2399899732424,1.3887142285429501e-06
491.25998997324245,1.3961810759608157e-06
491.27998997324244,1.4035041548490163e-06
491.2999899732424,1.4106938097982036e-06
491.3199899732424,1.4177600981084013e-06
491.33998997324244,1.4247127691824648e-06
491.3599899732424,1.4315612472798784e-06
491.37998997324246,1.4383146174892492e-06
491.39998997324244,1.444981614760728e-06
491.4199899732424,1.4515706158273727e-06
491.4399899732424,1.4580896338326379e-06
491.45998997324244,1.4645463154742005e-06
491.4799899732424,1.4709479404682858e-06
491.4999899732424,1.4773014231363221e-06
491.51998997324245,1.4836133159142103e-06
491.5399899732424,1.4898898145864213e-06
491.55999997324244,1.4961398820667178e-06
491.5799999732424,1.5023627777345124e-06
491.5999999732424,1.5085668034019087e-06
491.61999997324244,1.5147568082160426e-06
491.6399999732424,1.520937330095883e-06
491.6599999732424,1.5271126074361015e-06
491.67999997324245,1.5332865913148449e-06
491.6999999732424,1.5394629580674074e-06
491.7199999732424,1.545645122098452e-06
491.73999997324245,1.5518362488160888e-06
491.75999997324243,1.5580392675823296e-06
491.7799999732424,1.5642568845854947e-06
491.79999997324245,1.5704915955501891e-06
491.81999997324243,1.576745698211353e-06
491.8399999732424,1.5830213044887769e-06
491.85999997324245,1.5893203523075186e-06
491.87999997324243,1.5956446170191095e-06
491.8999999732424,1.6019957223867762e-06
491.9199999732424,1.6083751511053447e-06
491.93999997324244,1.614784254834178e-06
491.9599999732424,1.6212242637277329e-06
491.97999997324246,1.6276962954546745e-06
491.99999997324244,1.63420136370117e-06
492.0199999732424,1.640740386159667e-06
492.0399999732424,1.6473141920076929e-06
492.05999997324244,1.6539235288854969e-06
492.0799999732424,1.6605690693840383e-06
492.10000997324244,1.6672547675306518e-06
492.1200099732424,1.6739744812501604e-06
492.1400099732424,1.6807320241455018e-06
492.16000997324244,1.6875278242141901e-06
492.1800099732424,1.6943622600672217e-06
492.20000997324246,1.7012356648387815e-06
492.22000997324244,1.7081483297366708e-06
492.2400099732424,1.715100507255342e-06
492.2600099732424,1.7220924140723298e-06
492.28000997324244,1.7291242336493024e-06
492.3000099732424,1.7361961185579663e-06
492.3200099732424,1.7433081925509856e-06
492.34000997324245,1.750460552396722e-06
492.3600099732424,1.7576532694962992e-06
492.3800099732424,1.7648863913006915e-06
492.40000997324245,1.772159942544128e-06
492.42000997324243,1.779473926309614e-06
492.4400099732424,1.7868283249416148e-06
492.46000997324245,1.7942231008192444e-06
492.48000997324243,1.8016581970031312e-06
492.5000099732424,1.8091335377680933e-06
492.52000997324245,1.8166490290323513e-06
492.54000997324243,1.8242045586937455e-06
492.5600099732424,1.8317999968825712e-06
492.58000997324245,1.8394351961393207e-06
492.60000997324244,1.8471099915254573e-06
492.62001997324245,1.8548280676050389e-06
492.64001997324243,1.8625815102752766e-06
492.6600199732424,1.8703739495242973e-06
492.68001997324245,1.8782051504984487e-06
492.70001997324243,1.8860748606466922e-06
492.7200199732424,1.8939828095608978e-06
492.7400199732424,1.9019287087877353e-06
492.76001997324244,1.9099122516160485e-06
492.7800199732424,1.917933112842833e-06
492.80001997324246,1.9259909485210807e-06
492.82001997324244,1.9340853956916574e-06
492.8400199732424,1.9422160721022255e-06
492.8600199732424,1.9503825759149163e-06
492.88001997324244,1.958584485405021e-06
492.9000199732424,1.966821358652283e-06
492.9200199732424,1.975092733226807e-06
492.94001997324244,1.9833981258705934e-06
492.9600199732424,1.991737032176359e-06
492.9800199732424,2.000108926265079e-06
493.00001997324244,2.0085132604630028e-06
493.0200199732424,2.0169494649794945e-06
493.0400199732424,2.0254169475869014e-06
493.06001997324245,2.0339150933030414e-06
493.08001997324243,2.042443264077431e-06
493.1000199732424,2.0510007984823066e-06
493.12001997324245,2.0595870114089726e-06
493.14001997324243,2.068201193770408e-06
493.16002997324244,2.076846939607474e-06
493.1800299732424,2.0855148492667812e-06
493.2000299732424,2.094208453970946e-06
493.22002997324245,2.1029269458880188e-06
493.24002997324243,2.1116694918430854e-06
493.2600299732424,2.1204352330751965e-06
493.28002997324245,2.1292232850058157e-06
493.30002997324243,2.13803273701955e-06
493.3200299732424,2.1468626522582724e-06
493.34002997324245,2.155712067428847e-06
493.36002997324243,2.164579992625421e-06
493.3800299732424,2.173465411167239e-06
493.40002997324245,2.182367279452253e-06
493.42002997324244,2.191284526827505e-06
493.4400299732424,2.2002160554771506e-06
493.4600299732424,2.209160740328482e-06
493.48002997324244,2.2181174289769916e-06
493.5000299732424,2.227084941630887e-06
493.52002997324246,2.236062071076228e-06
493.54002997324244,2.245047582662721e-06
493.5600299732424,2.2540402143116297e-06
493.5800299732424,2.263038676545788e-06
493.60002997324244,2.2720416525428815e-06
493.6200299732424,2.281047798212358e-06
493.6400299732424,2.2900557422969503e-06
493.66002997324244,2.299064086499079e-06
493.6800399732424,2.3080759087950046e-06
493.70003997324244,2.317080749358961e-06
493.7200399732424,2.3260816338132937e-06
493.7400399732424,2.3350770574732966e-06
493.76003997324244,2.3440654896434924e-06
493.7800399732424,2.3530453739068618e-06
493.8000399732424,2.362015128443348e-06
493.82003997324244,2.3709731463776514e-06
493.8400399732424,2.3799177961569226e-06
493.8600399732424,2.3888474219591444e-06
493.88003997324245,2.397760344131962e-06
493.90003997324243,2.406654859662705e-06
493.9200399732424,2.415529242679998e-06
493.94003997324245,2.424381744986904e-06
493.96003997324243,2.4332105966260126e-06
493.9800399732424,2.4420140064768836e-06
494.00003997324245,2.450790162885644e-06
494.02003997324243,2.459537234326953e-06
494.0400399732424,2.468253370098747e-06
494.0600399732424,2.4769367010492613e-06
494.08003997324244,2.4855853403366686e-06
494.1000399732424,2.494197384221072e-06
494.12003997324246,2.5027709128890677e-06
494.14003997324244,2.5113039913100236e-06
494.1600399732424,2.519794670124712e-06
494.1800399732424,2.528240986565233e-06
494.20003997324244,2.536640965406418e-06
494.22004997324245,2.5449967833554227e-06
494.24004997324244,2.5532980907727505e-06
494.2600499732424,2.5615470691397633e-06
494.2800499732424,2.5697417035220856e-06
494.30004997324244,2.577879971738644e-06
494.3200499732424,2.5859598454902227e-06
494.34004997324246,2.593979291515561e-06
494.36004997324244,2.601936272773559e-06
494.3800499732424,2.6098287496513857e-06
494.4000499732424,2.617654681197012e-06
494.42004997324244,2.6254120263754843e-06
494.4400499732424,2.6330987453476946e-06
494.4600499732424,2.640712800770806e-06
494.48004997324244,2.6482521591188437e-06
494.5000499732424,2.655714792022274e-06
494.5200499732424,2.663098677625667e-06
494.54004997324245,2.6704018019615115e-06
494.5600499732424,2.67762216033915e-06
494.5800499732424,2.6847577587475167e-06
494.60004997324245,2.69180661526971e-06
494.62004997324243,2.6987667615082324e-06
494.6400499732424,2.7056362440193206e-06
494.66004997324245,2.712413125754473e-06
494.68004997324243,2.7190954875076304e-06
494.7000499732424,2.7256814293664594e-06
494.72004997324245,2.732169072165714e-06
494.7400599732424,2.7385597273260213e-06
494.76005997324245,2.7448451733171705e-06
494.78005997324243,2.751026820867132e-06
494.8000599732424,2.757102888327613e-06
494.82005997324245,2.7630716220347707e-06
494.84005997324243,2.768931297737426e-06
494.8600599732424,2.7746802220146104e-06
494.8800599732424,2.780316733680258e-06
494.90005997324243,2.7858392051733774e-06
494.9200599732424,2.7912460439315223e-06
494.94005997324246,2.7965356937459942e-06
494.96005997324244,2.8017066360963777e-06
494.9800599732424,2.8067573914629773e-06
495.0000599732424,2.811686520614879e-06
495.02005997324244,2.816492625872035e-06
495.0400599732424,2.8211743523392493e-06
495.0600599732424,2.825730389110568e-06
495.08005997324244,2.830159470441945e-06
495.1000599732424,2.834460376890565e-06
495.1200599732424,2.838631936419152e-06
495.14005997324244,2.8426730254634843e-06
495.1600599732424,2.84658256996141e-06
495.1800599732424,2.8503595463419767e-06
495.20005997324245,2.854002982472969e-06
495.2200599732424,2.85751195856532e-06
495.2400599732424,2.8608856080332235e-06
495.26005997324245,2.8641231183083014e-06
495.2800699732424,2.867225247552462e-06
495.30006997324244,2.8701881926274752e-06
495.3200699732424,2.8730128920279796e-06
495.3400699732424,2.8756987564653984e-06
495.36006997324245,2.878245254009566e-06
495.3800699732424,2.880651910603188e-06
495.4000699732424,2.8829183105230273e-06
495.42006997324245,2.8850440967869438e-06
495.44006997324243,2.8870289715060855e-06
495.4600699732424,2.888872696181823e-06
495.48006997324245,2.8905750919467222e-06
495.50006997324243,2.892136039749291e-06
495.5200699732424,2.893555480482145e-06
495.54006997324245,2.8948334150533745e-06
495.56006997324243,2.8959699044009434e-06
495.5800699732424,2.896965069450177e-06
495.6000699732424,2.8978190910143304e-06
495.62006997324244,2.8985322096383703e-06
495.6400699732424,2.8991047253862906e-06
495.66006997324246,2.89953699757226e-06
495.68006997324244,2.8998294444359804e-06
495.7000699732424,2.8999825427629194e-06
495.7200699732424,2.8999968274498166e-06
495.74006997324244,2.899872891016369e-06
495.7600699732424,2.8996113830637736e-06
495.7800699732424,2.89921300968097e-06
495.80006997324244,2.8986785327995927e-06
495.8200799732424,2.898008400921625e-06
495.84007997324244,2.8972041557025917e-06
495.8600799732424,2.896266421114093e-06
495.88007997324246,2.8951961750458177e-06
495.90007997324244,2.893994447273563e-06
495.9200799732424,2.8926623185305473e-06
495.9400799732424,2.891200919536163e-06
495.96007997324244,2.8896114299836772e-06
495.9800799732424,2.887895077488435e-06
496.0000799732424,2.8860531364981664e-06
496.02007997324245,2.8840869271670897e-06
496.0400799732424,2.881997814195558e-06
496.0600799732424,2.8797872056368824e-06
496.08007997324245,2.877456551673224e-06
496.10007997324243,2.875007343362419e-06
496.1200799732424,2.8724411113573695e-06
496.14007997324245,2.8697594246000972e-06
496.16007997324243,2.8669638889923136e-06
496.1800799732424,2.864056146044233e-06
496.20007997324245,2.8610378715038377e-06
496.22007997324243,2.8579107739683156e-06
496.2400799732424,2.8546765934796066e-06
496.26007997324245,2.8513371001061557e-06
496.28007997324244,2.847894092512686e-06
496.3000799732424,2.8443493965198513e-06
496.3200799732424,2.840704863655862e-06
496.3400899732424,2.8369604742681135e-06
496.36008997324245,2.8331218702464145e-06
496.38008997324243,2.8291891245824392e-06
496.4000899732424,2.825164177063777e-06
496.4200899732424,2.8210489858867964e-06
496.44008997324244,2.816845526198685e-06
496.4600899732424,2.8125557886442584e-06
496.48008997324246,2.8081817779189697e-06
496.50008997324244,2.8037255113302953e-06
496.5200899732424,2.7991890173685492e-06
496.5400899732424,2.794574334289186e-06
496.56008997324244,2.7898835087078464e-06
496.5800899732424,2.7851185942098005e-06
496.6000899732424,2.7802816499750485e-06
496.62008997324244,2.7753747394206976e-06
496.6400899732424,2.7703999288618293e-06
496.6600899732424,2.7653592861920534e-06
496.68008997324245,2.7602548795851447e-06
496.7000899732424,2.7550887762189415e-06
496.7200899732424,2.7498630410223305e-06
496.74008997324245,2.7445797354467576e-06
496.76008997324243,2.7392409162630712e-06
496.7800899732424,2.7338486343844767e-06
496.80008997324245,2.7284049337168207e-06
496.82008997324243,2.7229118500368025e-06
496.8400899732424,2.7173714098987426e-06
496.86008997324245,2.7117856295709543e-06
496.8800999732424,2.7061536889379604e-06
496.90009997324245,2.700483210578676e-06
496.92009997324243,2.6947733699212897e-06
496.9400999732424,2.689026132054253e-06
496.96009997324245,2.6832434469218626e-06
496.98009997324243,2.6774272484481547e-06
497.0000999732424,2.67157945369316e-06
497.02009997324245,2.665701962042097e-06
497.04009997324243,2.659796654427493e-06
497.0600999732424,2.6538653925842015e-06
497.08009997324245,2.647910018337663e-06
497.10009997324244,2.641932352925284e-06
497.1200999732424,2.6359341963507e-06
497.1400999732424,2.629917326771194e-06
497.16009997324244,2.623883499917814e-06
497.1800999732424,2.6178344485482795e-06
497.20009997324246,2.6117718819320235e-06
497.22009997324244,2.6056974853677372e-06
497.2400999732424,2.599612919732378e-06
497.2600999732424,2.59351982106192e-06
497.28009997324244,2.5874198001630473e-06
497.3000999732424,2.5813144422556738e-06
497.3200999732424,2.5752053066454314e-06
497.34009997324245,2.569093926426137e-06
497.3600999732424,2.562981808211397e-06
497.3800999732424,2.556870431894831e-06
497.4001099732424,2.550758196635718e-06
497.4201099732424,2.5446526380485755e-06
497.44010997324244,2.5385520994342913e-06
497.4601099732424,2.53245795194934e-06
497.4801099732424,2.5263715392413433e-06
497.50010997324244,2.520294177368984e-06
497.5201099732424,2.5142271547462204e-06
497.5401099732424,2.508171732110003e-06
497.56010997324245,2.5021291425110524e-06
497.58010997324243,2.4961005913269346e-06
497.6001099732424,2.4900872562964827e-06
497.62010997324245,2.4840902875751685e-06
497.64010997324243,2.478110807810593e-06
497.6601099732424,2.4721499122371847e-06
497.68010997324245,2.4662086687897133e-06
497.70010997324243,2.460288118234674e-06
497.7201099732424,2.4543892743187686e-06
497.7401099732424,2.4485131239340057e-06
497.76010997324244,2.442660627298457e-06
497.7801099732424,2.4368327181521792e-06
497.80010997324246,2.4310303039672693e-06
497.82010997324244,2.4252542661718145e-06
497.8401099732424,2.419505460386561e-06
497.8601099732424,2.4137847166740016e-06
497.88010997324244,2.4080928397989704e-06
497.9001099732424,2.4024306095002513e-06
497.9201099732424,2.396798780772312e-06
497.9401199732424,2.3911952917142076e-06
497.9601199732424,2.385626449692309e-06
497.98011997324244,2.3800901290531386e-06
498.0001199732424,2.374586988803802e-06
498.02011997324246,2.3691176647483193e-06
498.04011997324244,2.3636827698181745e-06
498.0601199732424,2.3582828944086277e-06
498.0801199732424,2.3529186067207157e-06
498.10011997324244,2.3475904531080977e-06
498.1201199732424,2.342298958428459e-06
498.1401199732424,2.3370446263986752e-06
498.16011997324244,2.331827939953577e-06
498.1801199732424,2.326649361607672e-06
498.2001199732424,2.321509333819256e-06
498.22011997324245,2.3164082793567402e-06
498.24011997324243,2.311346601666603e-06
498.2601199732424,2.306324685242468e-06
498.28011997324245,2.301342895995162e-06
498.30011997324243,2.2964015816232022e-06
498.3201199732424,2.291501071983277e-06
498.34011997324245,2.2866416794606122e-06
498.36011997324243,2.2818236993387505e-06
498.3801199732424,2.277047410168249e-06
498.40011997324245,2.272313074134405e-06
498.42011997324244,2.2676209374233874e-06
498.4401199732424,2.2629712305865362e-06
498.4601199732424,2.258364168902736e-06
498.4801299732424,2.2537976813787083e-06
498.50012997324245,2.2492765181053323e-06
498.52012997324243,2.244798557857006e-06
498.5401299732424,2.240363958390295e-06
498.56012997324245,2.235972863962528e-06
498.58012997324244,2.23162540567727e-06
498.6001299732424,2.2273217018262e-06
498.62012997324246,2.2230618582274523e-06
498.64012997324244,2.2188459685601756e-06
498.6601299732424,2.2146741146950385e-06
498.6801299732424,2.2105463670208074e-06
498.70012997324244,2.2064627847666814e-06
498.7201299732424,2.2024234163204034e-06
498.7401299732424,2.198428299541898e-06
498.76012997324244,2.194477462072522e-06
498.7801299732424,2.19057092163977e-06
498.8001299732424,2.1867086863572524e-06
498.82012997324244,2.182890755020092e-06
498.8401299732424,2.17911711739559e-06
498.8601299732424,2.175387754508968e-06
498.88012997324245,2.171702638924354e-06
498.90012997324243,2.1680617350209787e-06
498.9201299732424,2.16446499926427e-06
498.94012997324245,2.1609123804721658e-06
498.96012997324243,2.1574038200764754e-06
498.9801299732424,2.1539392523791793e-06
499.0001399732424,2.150516905452665e-06
499.0201399732424,2.147140120690559e-06
499.04013997324245,2.1438070911988276e-06
499.0601399732424,2.1405177252216235e-06
499.0801399732424,2.137271925080735e-06
499.10013997324245,2.1340695874022732e-06
499.12013997324243,2.1309106033384513e-06
499.1401399732424,2.127794858784333e-06
499.16013997324245,2.1247222345898955e-06
499.18013997324243,2.121692606767197e-06
499.2001399732424,2.1187058466927683e-06
499.22013997324245,2.1157618213052597e-06
499.24013997324244,2.1128603932984253e-06
499.2601399732424,2.110001421309389e-06
499.2801399732424,2.10718476010238e-06
499.30013997324244,2.1044102607478404e-06
499.3201399732424,2.1016777707971526e-06
499.34013997324246,2.0989871344527538e-06
499.36013997324244,2.0963381927340656e-06
499.3801399732424,2.0937307836389364e-06
499.4001399732424,2.0911647423009307e-06
499.42013997324244,2.088639901142387e-06
499.4401399732424,2.086156090023384e-06
499.4601399732424,2.0837131363866103e-06
499.48013997324244,2.0813108653982417e-06
499.5001399732424,2.078949100084979e-06
499.5201399732424,2.0766276614671463e-06
499.5401499732424,2.0743452380527627e-06
499.5601499732424,2.072103928440086e-06
499.58014997324244,2.069902397728333e-06
499.6001499732424,2.0677404601686624e-06
499.6201499732424,2.0656179286164485e-06
499.64014997324244,2.063534614642897e-06
499.6601499732424,2.061490328643297e-06
499.6801499732424,2.0594848799419737e-06
499.70014997324245,2.057518076894099e-06
