Energy,O4_XES
489.75401096482165,6.259793426458441e-07
489.7740109648216,6.457015314048584e-07
489.79401096482167,6.654516428717496e-07
489.81401096482165,6.852041047193022e-07
489.83401096482163,7.049335583759102e-07
489.85401096482167,7.246149714379183e-07
489.87401096482165,7.442237474688183e-07
489.89401096482163,7.637358323931087e-07
489.9140109648216,7.831278167268508e-07
489.93401096482165,8.023770329323517e-07
489.95401096482163,8.214616472331113e-07
489.9740109648217,8.403607452834171e-07
489.99401096482165,8.590544111467358e-07
490.01401096482164,8.775237991070041e-07
490.03402096482165,8.957602482701426e-07
490.05402096482163,9.137290042485105e-07
490.07402096482167,9.314239617403704e-07
490.09402096482165,9.488311186357503e-07
490.11402096482163,9.659377829772287e-07
490.1340209648216,9.827325958524172e-07
490.15402096482165,9.992055458613019e-07
490.17402096482164,1.0153479752791409e-06
490.1940209648217,1.0311525781064133e-06
490.21402096482166,1.0466133902608154e-06
490.23402096482164,1.0617257722298352e-06
490.2540209648216,1.07648638455571e-06
490.27402096482166,1.0908931565766947e-06
490.29402096482164,1.1049452488914984e-06
490.3140209648216,1.118643010052812e-06
490.33402096482166,1.1319879280257201e-06
490.35402096482164,1.144982576972642e-06
490.3740209648216,1.1576305599444559e-06
490.39402096482166,1.169936448067768e-06
490.41402096482165,1.1819057168242849e-06
490.4340209648216,1.1935446800168633e-06
490.45402096482167,1.2048604220085683e-06
490.47402096482165,1.2158607288091165e-06
490.49402096482163,1.2265540185649946e-06
490.51402096482167,1.2369492719858295e-06
490.53402096482165,1.2470559632134639e-06
490.55403096482166,1.2568888376206814e-06
490.57403096482165,1.266448329327597e-06
490.5940309648216,1.275749972275059e-06
490.61403096482167,1.2848045478899551e-06
490.63403096482165,1.2936230073914098e-06
490.65403096482163,1.3022164140369967e-06
490.67403096482167,1.310595888357073e-06
490.69403096482165,1.3187725565808752e-06
490.71403096482163,1.326757502417281e-06
490.73403096482167,1.3345617223130303e-06
490.75403096482165,1.3421960842735768e-06
490.77403096482163,1.349671290295251e-06
490.7940309648217,1.3569978424223976e-06
490.81403096482165,1.3641860124116e-06
490.83403096482164,1.371245814955341e-06
490.8540309648216,1.3781869843899469e-06
490.87403096482166,1.3850189547890154e-06
490.89403096482164,1.3917508433215827e-06
490.9140309648217,1.398391436736244e-06
490.93403096482166,1.4049491808158697e-06
490.95403096482164,1.4114321726357162e-06
490.9740309648216,1.4178481554463903e-06
490.99403096482166,1.4242045159964094e-06
491.01403096482164,1.4305082841033944e-06
491.0340309648216,1.4367661342806319e-06
491.05403096482166,1.4429843892245307e-06
491.07403096482165,1.449169024970342e-06
491.09404096482166,1.4553287497518782e-06
491.11404096482164,1.461462712961139e-06
491.1340409648216,1.467578980155925e-06
491.15404096482166,1.4736822189668723e-06
491.17404096482164,1.4797767947272393e-06
491.1940409648216,1.4858667818661777e-06
491.21404096482166,1.491955975783833e-06
491.23404096482165,1.4980479050744291e-06
491.2540409648216,1.5041458439740236e-06
491.27404096482167,1.5102528249198233e-06
491.29404096482165,1.5163716511191157e-06
491.31404096482163,1.5225049090364213e-06
491.33404096482167,1.5286549807174143e-06
491.35404096482165,1.5348240558786493e-06
491.37404096482163,1.5410141437018167e-06
491.39404096482167,1.5472270842799912e-06
491.41404096482165,1.5534645596725062e-06
491.43404096482163,1.5597281045332917e-06
491.4540409648216,1.566019116284517e-06
491.47404096482165,1.5723388648150902e-06
491.49404096482164,1.5786885016893287e-06
491.5140409648217,1.5850690688575591e-06
491.53404096482166,1.5914815068646e-06
491.55404096482164,1.5979266625579365e-06
491.5740409648216,1.6044052963001404e-06
491.59404096482166,1.610918088694548e-06
491.61404096482164,1.6174656468355684e-06
491.63405096482165,1.6240518104423307e-06
491.65405096482164,1.6306704738258762e-06
491.6740509648216,1.6373253390665189e-06
491.69405096482166,1.6440167727288972e-06
491.71405096482164,1.650745092549134e-06
491.7340509648217,1.6575105711867362e-06
491.75405096482166,1.6643134396289557e-06
491.77405096482164,1.6711538902690382e-06
491.7940509648216,1.678032079678561e-06
491.81405096482166,1.684948131094592e-06
491.83405096482164,1.691902136641342e-06
491.8540509648216,1.6988941593059166e-06
491.87405096482166,1.7059242346864777e-06
491.89405096482164,1.712992372530789e-06
491.9140509648216,1.7200985580823847e-06
491.93405096482167,1.7272427532500997e-06
491.95405096482165,1.7344248976164493e-06
491.97405096482163,1.7416449092993166e-06
491.99405096482167,1.748902685680047e-06
492.01405096482165,1.7561981040106103e-06
492.03405096482163,1.7635310219117316e-06
492.05405096482167,1.7709012777722884e-06
492.07405096482165,1.7783086910602633e-06
492.09405096482163,1.7857530625544757e-06
492.1140509648217,1.7932341745052282e-06
492.13405096482165,1.8007517907317194e-06
492.15406096482167,1.8083094426186706e-06
492.17406096482165,1.8158993032041298e-06
492.19406096482163,1.8235248489568268e-06
492.21406096482167,1.8311857699069958e-06
492.23406096482165,1.8388817374186664e-06
492.25406096482163,1.8466124040356632e-06
492.2740609648216,1.8543774033019546e-06
492.29406096482165,1.8621763495602068e-06
492.31406096482164,1.8700088377315985e-06
492.3340609648217,1.8778744430800658e-06
492.35406096482166,1.8857727209631696e-06
492.37406096482164,1.8937032065725646e-06
492.3940609648216,1.9016654146656998e-06
492.41406096482166,1.9096588392910947e-06
492.43406096482164,1.917682953508689e-06
492.4540609648216,1.925737209107394e-06
492.47406096482166,1.933821036320714e-06
492.49406096482164,1.94193384354228e-06
492.5140609648216,1.950075017042599e-06
492.53406096482166,1.9582439206879087e-06
492.55406096482164,1.966439895662434e-06
492.5740609648216,1.9746622601953353e-06
492.59406096482167,1.9829103092928952e-06
492.61406096482165,1.991183314477118e-06
492.63406096482163,1.999480523531924e-06
492.65406096482167,2.0078011602573007e-06
492.67406096482165,2.016144424232516e-06
492.69407096482166,2.0245136784353094e-06
492.71407096482164,2.0328997079020756e-06
492.7340709648216,2.041305815375475e-06
492.75407096482166,2.049731101382443e-06
492.77407096482165,2.0581746412097616e-06
492.79407096482163,2.066635484738642e-06
492.81407096482167,2.075112656293588e-06
492.83407096482165,2.083605154506485e-06
492.85407096482163,2.092111952196922e-06
492.87407096482167,2.1006319962689667e-06
492.89407096482165,2.1091642076254016e-06
492.91407096482163,2.1177074811002904e-06
492.9340709648217,2.126260685410144e-06
492.95407096482165,2.134822663124663e-06
492.97407096482164,2.1433922306578868e-06
492.9940709648216,2.1519681782799883e-06
493.01407096482166,2.1605492701508177e-06
493.03407096482164,2.1691342443755183e-06
493.0540709648217,2.177721813083248e-06
493.07407096482166,2.1863106625290954e-06
493.09407096482164,2.194899453220446e-06
493.1140709648216,2.2034868200678255e-06
493.13407096482166,2.212071372561221e-06
493.15407096482164,2.2206516949720996e-06
493.1740709648216,2.229226346582139e-06
493.19407096482166,2.2377938619386676e-06
493.2140809648216,2.2463570281730084e-06
493.23408096482166,2.254905771717031e-06
493.25408096482164,2.263442836438408e-06
493.2740809648216,2.271966661046821e-06
493.29408096482166,2.2804756612163823e-06
493.31408096482164,2.2889682300124783e-06
493.3340809648216,2.297442738348666e-06
493.35408096482166,2.305897535473544e-06
493.37408096482164,2.314330949488081e-06
493.3940809648216,2.322741287893805e-06
493.41408096482166,2.3311268381716145e-06
493.43408096482165,2.339485868391588e-06
493.4540809648216,2.3478166278540375e-06
493.47408096482167,2.3561173477615293e-06
493.49408096482165,2.3643862419219963e-06
493.51408096482163,2.3726215074831854e-06
493.53408096482167,2.3808213256978674e-06
493.55408096482165,2.388983862719952e-06
493.57408096482163,2.3971072704314364e-06
493.5940809648216,2.405189687299626e-06
493.61408096482165,2.4132292392645867e-06
493.63408096482164,2.4212240406562893e-06
493.6540809648217,2.42917219514137e-06
493.67408096482166,2.437071796698529e-06
493.69408096482164,2.4449209306226467e-06
493.7140809648216,2.452717674556531e-06
493.73408096482166,2.4604600995500346e-06
493.75409096482167,2.46815009983776e-06
493.77409096482165,2.475778049600097e-06
493.79409096482163,2.4833458640260746e-06
493.8140909648216,2.4908515989026857e-06
493.83409096482166,2.4982933091021827e-06
493.85409096482164,2.505669049788001e-06
493.8740909648217,2.512976877642083e-06
493.89409096482166,2.5202148521120334e-06
493.91409096482164,2.5273810366775755e-06
493.9340909648216,2.5344735001345157e-06
493.95409096482166,2.541490317895416e-06
493.97409096482164,2.548429573305302e-06
493.9940909648216,2.555289358971511e-06
494.01409096482166,2.562067778105768e-06
494.03409096482164,2.5687629458773144e-06
494.0540909648216,2.5753729907757094e-06
494.07409096482166,2.5818960559814566e-06
494.09409096482165,2.5883303007430106e-06
494.1140909648216,2.594673901758754e-06
494.13409096482167,2.6009250545619128e-06
494.15409096482165,2.6070819749069385e-06
494.17409096482163,2.6131429001557484e-06
494.19409096482167,2.6191060906617757e-06
494.21409096482165,2.62496983115027e-06
494.23409096482163,2.6307324320931037e-06
494.25409096482167,2.6363922310760616e-06
494.2741009648216,2.6419503454476e-06
494.29410096482167,2.6473996150872074e-06
494.31410096482165,2.6527412709533072e-06
494.33410096482163,2.65797377256534e-06
494.35410096482167,2.663095613218866e-06
494.37410096482165,2.6681053212699795e-06
494.39410096482163,2.6730014613994757e-06
494.4141009648216,2.677782635854852e-06
494.43410096482165,2.6824474856684734e-06
494.45410096482163,2.6869946918499817e-06
494.4741009648217,2.691422976551371e-06
494.49410096482165,2.695731104202746e-06
494.51410096482164,2.699917882617303e-06
494.5341009648216,2.703982164063656e-06
494.55410096482166,2.7079228463040234e-06
494.57410096482164,2.7117388735965336e-06
494.5941009648216,2.715429237660327e-06
494.61410096482166,2.718992978601716e-06
494.63410096482164,2.7224291858000453e-06
494.6541009648216,2.725736998751994e-06
494.67410096482166,2.7289156078727648e-06
494.69410096482164,2.731964255253025e-06
494.7141009648216,2.734882235370456e-06
494.73410096482166,2.7376688957545725e-06
494.75410096482165,2.7403236376039395e-06
494.7741009648216,2.742845916354744e-06
494.79410096482167,2.74523524219974e-06
494.8141109648216,2.7474922750968735e-06
494.83411096482166,2.7496143800576384e-06
494.85411096482164,2.7516023955117455e-06
494.8741109648216,2.753456054876869e-06
494.89411096482166,2.755175148152016e-06
494.91411096482165,2.7567595221242143e-06
494.9341109648216,2.7582090805215762e-06
494.95411096482167,2.7595237841122923e-06
494.97411096482165,2.7607036507495805e-06
494.99411096482163,2.761748755362427e-06
495.01411096482167,2.7626592298921244e-06
495.03411096482165,2.7634352631747694e-06
495.05411096482163,2.7640771007698766e-06
495.07411096482167,2.764585044735427e-06
495.09411096482165,2.7649594533496454e-06
495.11411096482163,2.765200740780056e-06
495.1341109648216,2.765309376700333e-06
495.15411096482165,2.7652858858555126e-06
495.17411096482164,2.7651308475763604e-06
495.1941109648217,2.7648448952436466e-06
495.21411096482166,2.7644287157031956e-06
495.23411096482164,2.7638830486326415e-06
495.2541109648216,2.7632086858609786e-06
495.27411096482166,2.76240647064191e-06
495.29411096482164,2.7614772968822445e-06
495.3141109648216,2.7604221083264956e-06
495.33411096482166,2.7592418976989996e-06
495.3541209648216,2.757937022877756e-06
495.37412096482166,2.756509876497862e-06
495.39412096482164,2.754960971490032e-06
495.4141209648217,2.7532914871409294e-06
495.43412096482166,2.7515026468395955e-06
495.45412096482164,2.749595716995023e-06
495.4741209648216,2.7475720059219693e-06
495.49412096482166,2.7454328626964593e-06
495.51412096482164,2.7431796759828614e-06
495.5341209648216,2.740813872834137e-06
495.55412096482166,2.738336917467164e-06
495.57412096482165,2.735750310014866e-06
495.5941209648216,2.733055585256889e-06
495.61412096482167,2.73025431133079e-06
495.63412096482165,2.7273480884254774e-06
495.65412096482163,2.7243385474586477e-06
495.67412096482167,2.721227348740322e-06
495.69412096482165,2.718016180624018e-06
495.71412096482163,2.7147067581475584e-06
495.73412096482167,2.7113008216652996e-06
495.75412096482165,2.707800135473622e-06
495.77412096482163,2.704206486431328e-06
495.7941209648217,2.700521682576917e-06
495.81412096482165,2.696747551744403e-06
495.83412096482164,2.6928859401792825e-06
495.8541209648216,2.6889387111565776e-06
495.87413096482163,2.6849057074887486e-06
495.89413096482167,2.6807928541603174e-06
495.91413096482165,2.6766000625763893e-06
495.93413096482163,2.6723292504119276e-06
495.9541309648216,2.667982345546987e-06
495.97413096482165,2.6635612847301216e-06
495.99413096482164,2.659068012254596e-06
496.0141309648217,2.6545044786487223e-06
496.03413096482166,2.6498726393818655e-06
496.05413096482164,2.6451744535870646e-06
496.0741309648216,2.6404118828018643e-06
496.09413096482166,2.6355868897282188e-06
496.11413096482164,2.630701437012875e-06
496.1341309648216,2.6257574860489844e-06
496.15413096482166,2.6207569958002652e-06
496.17413096482164,2.615701921648573e-06
496.1941309648216,2.610594214265577e-06
496.21413096482166,2.605435818509746e-06
496.23413096482165,2.6002286723492032e-06
496.2541309648216,2.5949747058111422e-06
496.27413096482167,2.5896758399586622e-06
496.29413096482165,2.584333985895581e-06
496.31413096482163,2.5789510437995624e-06
496.33413096482167,2.5735289019844684e-06
496.35413096482165,2.5680694359920922e-06
496.37413096482163,2.562574507713645e-06
496.39413096482167,2.5570459645415756e-06
496.4141409648216,2.551482850742754e-06
496.43414096482167,2.545892543375698e-06
496.45414096482165,2.540274069171181e-06
496.47414096482163,2.53462920964798e-06
496.49414096482167,2.528959728045654e-06
496.51414096482165,2.5232673686617066e-06
496.53414096482163,2.517553856219754e-06
496.55414096482167,2.5118208952688486e-06
496.57414096482165,2.5060701696138474e-06
496.59414096482163,2.500303341776351e-06
496.6141409648217,2.494522052486465e-06
496.63414096482165,2.4887279202049464e-06
496.65414096482164,2.4829225406753106e-06
496.6741409648216,2.4771074865059283e-06
496.69414096482166,2.4712843067815357e-06
496.71414096482164,2.465454526703906e-06
496.7341409648217,2.4596196472610695e-06
496.75414096482166,2.453781144925082e-06
496.77414096482164,2.447940471377317e-06
496.7941409648216,2.4420990532612764e-06
496.81414096482166,2.4362582919621624e-06
496.83414096482164,2.430419563412746e-06
496.8541409648216,2.4245842179249005e-06
496.87414096482166,2.4187535800463346e-06
496.89414096482164,2.412928948441961e-06
496.9141409648216,2.4071115957990346e-06
496.93415096482164,2.401299866679405e-06
496.9541509648216,2.3955007909503543e-06
496.97415096482166,2.389712656368217e-06
496.99415096482164,2.383936631206338e-06
497.0141509648216,2.3781738576238125e-06
497.03415096482166,2.3724254517010668e-06
497.05415096482164,2.3666925034948656e-06
497.0741509648216,2.360976077111851e-06
497.09415096482167,2.35527721080034e-06
497.11415096482165,2.3495969170594135e-06
497.13415096482163,2.343936182764579e-06
497.15415096482167,2.338295969309575e-06
497.17415096482165,2.3326772127635143e-06
497.19415096482163,2.327080824042541e-06
497.21415096482167,2.3215076890956317e-06
497.23415096482165,2.315958669103712e-06
497.25415096482163,2.3104346006913344e-06
497.2741509648216,2.3049362961505484e-06
497.29415096482165,2.2994645436760517e-06
497.31415096482164,2.2940201076112357e-06
497.3341509648217,2.2886037287041664e-06
497.35415096482166,2.283216124373387e-06
497.37415096482164,2.2778579889824044e-06
497.3941509648216,2.272529994122675e-06
497.41415096482166,2.267232788904345e-06
497.43415096482164,2.2619670002542236e-06
497.4541509648216,2.256733233220333e-06
497.47416096482164,2.251529478951718e-06
497.4941609648216,2.2463615010594835e-06
497.51416096482166,2.241227232055471e-06
497.53416096482164,2.2361271926234845e-06
497.5541609648217,2.2310618831734143e-06
497.57416096482166,2.2260317841751906e-06
497.59416096482164,2.2210373564956646e-06
497.6141609648216,2.2160790417384466e-06
497.63416096482166,2.2111572625859455e-06
497.65416096482164,2.2062724231434382e-06
497.6741609648216,2.201424909284518e-06
497.69416096482166,2.196615088997785e-06
497.71416096482164,2.19184331273435e-06
497.7341609648216,2.1871099137555848e-06
497.75416096482166,2.1824152084811238e-06
497.77416096482165,2.1777594968365905e-06
497.79416096482163,2.1731430626006558e-06
497.81416096482167,2.1685661737513643e-06
497.83416096482165,2.1640290828113587e-06
497.85416096482163,2.1595320271915117e-06
497.87416096482167,2.1550752295330956e-06
497.89416096482165,2.150658898048015e-06
497.91416096482163,2.1462832268567667e-06
497.9341609648217,2.1419483963242357e-06
497.95416096482165,2.1376545733928646e-06
497.97416096482164,2.1334019119130075e-06
497.9941609648216,2.1291905529704727e-06
498.01417096482163,2.1250185506299436e-06
498.03417096482167,2.120890191381002e-06
498.05417096482165,2.1168034846164877e-06
498.07417096482163,2.1127585235689774e-06
498.09417096482167,2.1087553902946605e-06
498.11417096482165,2.1047941559801093e-06
498.13417096482164,2.1008748812450444e-06
498.1541709648217,2.0969976164412722e-06
498.17417096482166,2.0931624019474623e-06
498.19417096482164,2.089369268459719e-06
498.2141709648216,2.085618237277996e-06
498.23417096482166,2.0819093205881634e-06
498.25417096482164,2.078242521739755e-06
498.2741709648216,2.0746178355192126e-06
498.29417096482166,2.071035248418765e-06
498.31417096482164,2.067494738900811e-06
498.3341709648216,2.063996277657655e-06
498.35417096482166,2.060539827866828e-06
498.37417096482164,2.0571253454417896e-06
498.3941709648216,2.053752779277957e-06
498.41417096482166,2.050422071494248e-06
498.43417096482165,2.0471331576699414e-06
498.4541709648216,2.0438859670769513e-06
498.47417096482167,2.0406804229074824e-06
498.49417096482165,2.037516442497123e-06
498.51417096482163,2.034393937543274e-06
498.53418096482164,2.031311284091772e-06
498.5541809648216,2.0282714642712504e-06
498.57418096482166,2.0252728232335173e-06
498.59418096482165,2.0223152522145525e-06
498.6141809648216,2.0193986378364244e-06
498.63418096482167,2.0165228622987043e-06
498.65418096482165,2.0136878035654523e-06
498.67418096482163,2.01089333554775e-06
498.69418096482167,2.008139328281985e-06
498.71418096482165,2.005425648103845e-06
498.73418096482163,2.0027521578179726e-06
498.75418096482167,2.0001187168635004e-06
498.77418096482165,1.9975251814754617e-06
498.79418096482163,1.9949714048419893e-06
498.8141809648216,1.9924572372575753e-06
498.83418096482166,1.989982526272291e-06
498.85418096482164,1.9875471168371085e-06
498.8741809648217,1.9851508514452867e-06
498.89418096482166,1.9827935702700367e-06
498.91418096482164,1.9804751112983415e-06
498.9341809648216,1.978195310461143e-06
498.95418096482166,1.9759540017599026e-06
498.97418096482164,1.973751017389599e-06
498.9941809648216,1.9715861878581946e-06
499.01418096482166,1.969459342102728e-06
499.03418096482164,1.9673703076020367e-06
499.0541809648216,1.9653189104861446e-06
499.07419096482164,1.963303978015954e-06
499.0941909648216,1.9613273477911105e-06
499.11419096482166,1.959387826205675e-06
499.13419096482164,1.9574852350247493e-06
499.1541909648216,1.955619395164715e-06
499.17419096482166,1.9537901267843553e-06
