Energy,O4_XAS
519.2540109648216,5.076226200960362e-07
519.2740109648216,5.278175399016533e-07
519.2940109648216,5.480651911891611e-07
519.3140109648216,5.683245452528849e-07
519.3340109648217,5.885547595875816e-07
519.3540109648217,6.087154463197269e-07
519.3740109648217,6.287669351823474e-07
519.3940109648216,6.486705281916839e-07
519.4140109648216,6.683887433178716e-07
519.4340109648216,6.878855446095516e-07
519.4540109648217,7.071265564402931e-07
519.4740109648217,7.260792597838061e-07
519.4940109648217,7.447131686954029e-07
519.5140109648216,7.629999854646774e-07
519.5340209648216,7.809225927461865e-07
519.5540209648217,7.984395208099847e-07
519.5740209648217,8.15538791299452e-07
519.5940209648217,8.322019496618071e-07
519.6140209648216,8.484131539285547e-07
519.6340209648216,8.641591875168555e-07
519.6540209648216,8.794294488911069e-07
519.6740209648217,8.94215919040355e-07
519.6940209648217,9.08513107977114e-07
519.7140209648217,9.223179816878201e-07
519.7340209648216,9.356298711545815e-07
519.7540209648216,9.484503652306599e-07
519.7740209648216,9.60783189276306e-07
519.7940209648217,9.72634071553725e-07
519.8140209648217,9.840105994365297e-07
519.8340209648217,9.949220675138865e-07
519.8540209648216,1.005379319658404e-06
519.8740209648216,1.0153945870899682e-06
519.8940209648216,1.0249813243990418e-06
519.9140209648217,1.0341540454010428e-06
519.9340209648217,1.0429281605782794e-06
519.9540209648217,1.0513198177336313e-06
519.9740209648216,1.0593457473294632e-06
519.9940209648216,1.0670231138265117e-06
520.0140209648216,1.0743693741674515e-06
520.0340209648216,1.0814021443764448e-06
520.0540309648217,1.0881423724758053e-06
520.0740309648216,1.0946008991442913e-06
520.0940309648216,1.1007985501101712e-06
520.1140309648216,1.1067524301178805e-06
520.1340309648216,1.1124792795741272e-06
520.1540309648217,1.1179954006816646e-06
520.1740309648217,1.123316593842398e-06
520.1940309648216,1.1284581040763322e-06
520.2140309648216,1.1334345770988663e-06
520.2340309648216,1.1382600246119648e-06
520.2540309648216,1.142947798290551e-06
520.2740309648217,1.1475105718870285e-06
520.2940309648217,1.1519603308318336e-06
520.3140309648217,1.1563083686774037e-06
520.3340309648216,1.1605652897134765e-06
520.3540309648216,1.1647410170757991e-06
520.3740309648216,1.168844805673477e-06
520.3940309648217,1.17288525927356e-06
520.4140309648217,1.1768703511025795e-06
520.4340309648217,1.1808074473534129e-06
520.4540309648216,1.1847033330188522e-06
520.4740309648216,1.1885642395124589e-06
520.4940309648216,1.19239587357827e-06
520.5140309648217,1.196203447035105e-06
520.5340309648217,1.1999917069459663e-06
520.5540309648217,1.203764965849036e-06
520.5740309648216,1.2075271317309305e-06
520.5940409648216,1.211283613424645e-06
520.6140409648217,1.2150338440125286e-06
520.6340409648217,1.2187825699770399e-06
520.6540409648217,1.222532366786971e-06
520.6740409648216,1.2262855431786413e-06
520.6940409648216,1.230044165201433e-06
520.7140409648216,1.2338100788795339e-06
520.7340409648216,1.2375849314548938e-06
520.7540409648217,1.2413701911987174e-06
520.7740409648217,1.2451671657979941e-06
520.7940409648216,1.2489770193403516e-06
520.8140409648216,1.2528007879335003e-06
520.8340409648216,1.2566393940073424e-06
520.8540409648216,1.2604936593551283e-06
520.8740409648217,1.2643643169768247e-06
520.8940409648217,1.2682520217924098e-06
520.9140409648217,1.2721573602962373e-06
520.9340409648216,1.2760808592244075e-06
520.9540409648216,1.2800229933081026e-06
520.9740409648216,1.2839841921846195e-06
520.9940409648217,1.2879648465362967e-06
521.0140409648217,1.2919653135249723e-06
521.0340409648217,1.2959859215872213e-06
521.0540409648216,1.3000269746513885e-06
521.0740409648216,1.30408875583465e-06
521.0940409648216,1.3081715306740575e-06
521.1140409648217,1.312275549941753e-06
521.1340509648217,1.316403120253417e-06
521.1540509648216,1.3205503444463355e-06
521.1740509648216,1.3247194997612805e-06
521.1940509648216,1.328910799281517e-06
521.2140509648217,1.3331244506508243e-06
521.2340509648217,1.337360657234236e-06
521.2540509648217,1.3416196191108547e-06
521.2740509648216,1.3459015339207562e-06
521.2940509648216,1.350206597586344e-06
521.3140509648216,1.3545350049255944e-06
521.3340509648217,1.3588869501726813e-06
521.3540509648217,1.3632626274193901e-06
521.3740509648217,1.3676622309894336e-06
521.3940509648216,1.372085955755428e-06
521.4140509648216,1.376533997407727e-06
521.4340509648216,1.3810065526825964e-06
521.4540509648216,1.3855038195562731e-06
521.4740509648217,1.3900259974105734e-06
521.4940509648217,1.3945732871745895e-06
521.5140509648216,1.3991458914470064e-06
521.5340509648216,1.4037440146018548e-06
521.5540509648216,1.4083678628810536e-06
521.5740509648216,1.4130176444759615e-06
521.5940509648217,1.4176935696000357e-06
521.6140509648217,1.4223958505541469e-06
521.6340509648217,1.427124701786318e-06
521.6540609648216,1.4318827245020974e-06
521.6740609648216,1.4366653820515516e-06
521.6940609648217,1.4414752667480005e-06
521.7140609648217,1.4463126021445009e-06
521.7340609648217,1.4511776141856943e-06
521.7540609648216,1.456070531250398e-06
521.7740609648216,1.4609915841932769e-06
521.7940609648216,1.4659410063856385e-06
521.8140609648217,1.470919033755674e-06
521.8340609648217,1.4759259048280544e-06
521.8540609648217,1.4809618607634937e-06
521.8740609648216,1.4860271453977867e-06
521.8940609648216,1.4911220052808313e-06
521.9140609648216,1.496246689715522e-06
521.9340609648217,1.501401450796655e-06
521.9540609648217,1.5065865434496941e-06
521.9740609648217,1.5118022254698983e-06
521.9940609648216,1.5170487575613e-06
522.0140609648216,1.5223264033759759e-06
522.0340609648216,1.527635429553534e-06
522.0540609648217,1.532976105760902e-06
522.0740609648217,1.5383487047323278e-06
522.0940609648217,1.5437535023100653e-06
522.1140609648216,1.5491907774852425e-06
522.1340609648216,1.5546608124394158e-06
522.1540609648216,1.5601638925866925e-06
522.1740609648216,1.565700306616523e-06
522.1940709648217,1.5712731400170174e-06
522.2140709648216,1.5768771182352053e-06
522.2340709648216,1.5825153166459602e-06
522.2540709648216,1.5881880374854337e-06
522.2740709648217,1.5938955864914316e-06
522.2940709648217,1.5996382729513974e-06
522.3140709648217,1.6054164097518108e-06
522.3340709648216,1.6112303134284177e-06
522.3540709648216,1.6170803042177509e-06
522.3740709648216,1.622966706109885e-06
522.3940709648216,1.6288898469024194e-06
522.4140709648217,1.6348500582558e-06
522.4340709648217,1.6408476757498063e-06
522.4540709648217,1.6468830389417369e-06
522.4740709648216,1.6529564914256511e-06
522.4940709648216,1.6590683808931941e-06
522.5140709648216,1.6652190591958691e-06
522.5340709648217,1.6714088824087843e-06
522.5540709648217,1.6776382108957496e-06
522.5740709648217,1.6839074093762245e-06
522.5940709648216,1.6902168469934594e-06
522.6140709648216,1.696566897384347e-06
522.6340709648216,1.7029579387508019e-06
522.6540709648217,1.7093903539327245e-06
522.6740709648217,1.7158645304823334e-06
522.6940709648217,1.7223808607404214e-06
522.7140809648216,1.7289430320642598e-06
522.7340809648216,1.7355448878827176e-06
522.7540809648217,1.7421901041508192e-06
522.7740809648217,1.748879093156418e-06
522.7940809648217,1.7556122723787934e-06
522.8140809648216,1.7623900645734587e-06
522.8340809648216,1.769212897858499e-06
522.8540809648216,1.7760812058023282e-06
522.8740809648217,1.782995427512749e-06
522.8940809648217,1.7899560077271928e-06
522.9140809648217,1.7969633969046808e-06
522.9340809648216,1.8040180513186525e-06
522.9540809648216,1.8111204331513563e-06
522.9740809648216,1.8182710105894876e-06
522.9940809648216,1.8254702579211868e-06
523.0140809648217,1.832718655634451e-06
523.0340809648217,1.8400166905167487e-06
523.0540809648217,1.8473648557565279e-06
523.0740809648216,1.854763651045835e-06
523.0940809648216,1.8622135826847527e-06
523.1140809648216,1.8697151636874766e-06
523.1340809648217,1.8772689138902196e-06
523.1540809648217,1.8848753600607748e-06
523.1740809648217,1.8925350360104834e-06
523.1940809648216,1.9002484827078656e-06
523.2140809648216,1.9080162483946558e-06
523.2340809648216,1.9158388887041224e-06
523.2540909648217,1.9237209197821e-06
523.2740909648217,1.931655034557294e-06
523.2940909648216,1.9396457367153967e-06
523.3140909648216,1.9476936126929527e-06
523.3340909648216,1.9557992569482037e-06
523.3540909648217,1.963963272095666e-06
523.3740909648217,1.972186269043497e-06
523.3940909648217,1.98046886713458e-06
523.4140909648216,1.9888116942903063e-06
523.4340909648216,1.9972153871580853e-06
523.4540909648216,2.005680591262149e-06
523.4740909648217,2.0142079611580213e-06
523.4940909648217,2.022798160590394e-06
523.5140909648217,2.031451862655197e-06
523.5340909648216,2.040169749964988e-06
523.5540909648216,2.048952514818541e-06
523.5740909648216,2.0578008593743647e-06
523.5940909648216,2.066715495828299e-06
523.6140909648217,2.0756971465953527e-06
523.6340909648217,2.0847465444955346e-06
523.6540909648216,2.0938644329445532e-06
523.6740909648216,2.103051566148441e-06
523.6940909648216,2.112308709302932e-06
523.7140909648216,2.121636638797401e-06
523.7340909648217,2.131036142423529e-06
523.7540909648217,2.1405080195884538e-06
523.7741009648216,2.1500578725064372e-06
523.7941009648216,2.1596769797412863e-06
523.8141009648216,2.169370931058149e-06
523.8341009648217,2.179140574564813e-06
523.8541009648217,2.188986771125693e-06
523.8741009648217,2.198910394605789e-06
523.8941009648216,2.2089123321194765e-06
523.9141009648216,2.2189934842849892e-06
523.9341009648216,2.2291547654844845e-06
523.9541009648217,2.2393971041298232e-06
523.9741009648217,2.2497214429339316e-06
523.9941009648217,2.2601287391887184e-06
524.0141009648216,2.27061996504859e-06
524.0341009648216,2.2811961078206e-06
524.0541009648216,2.29185817026106e-06
524.0741009648217,2.302607170878999e-06
524.0941009648217,2.313444144246285e-06
524.1141009648217,2.324370141315577e-06
524.1341009648216,2.335386229745159e-06
524.1541009648216,2.346493494231814e-06
524.1741009648216,2.3576930368516667e-06
524.1941009648217,2.368985977409408e-06
524.2141009648217,2.3803734537957593e-06
524.2341009648217,2.391856622354542e-06
524.2541009648216,2.403436658258204e-06
524.2741009648216,2.415114755893252e-06
524.2941009648216,2.4268921292553403e-06
524.3141109648217,2.4387759766444506e-06
524.3341109648217,2.450755675119928e-06
524.3541109648216,2.462838413711544e-06
524.3741109648216,2.4750254890196898e-06
524.3941109648216,2.4873182193869806e-06
524.4141109648217,2.499717945358393e-06
524.4341109648217,2.5122260301529344e-06
524.4541109648217,2.524843860148193e-06
524.4741109648216,2.5375728453766626e-06
524.4941109648216,2.5504144200352035e-06
524.5141109648216,2.5633700430076218e-06
524.5341109648216,2.5764411984006544e-06
524.5541109648217,2.5896293960939686e-06
524.5741109648217,2.6029361723039917e-06
524.5941109648217,2.616363090163154e-06
524.6141109648216,2.629911740313503e-06
524.6341109648216,2.643583741516245e-06
524.6541109648216,2.6573807412772657e-06
524.6741109648217,2.6713044164893615e-06
524.6941109648217,2.6853564740911594e-06
524.7141109648217,2.699538651744607e-06
524.7341109648216,2.7138527185300095e-06
524.7541109648216,2.7283004756604383e-06
524.7741109648216,2.742883757215783e-06
524.7941109648217,2.7576044308972407e-06
524.8141109648217,2.7724643988025256e-06
524.8341109648217,2.7874655982238284e-06
524.8541209648216,2.8026176108225755e-06
524.8741209648216,2.8179073031699865e-06
524.8941209648217,2.833344259428775e-06
524.9141209648217,2.848930566128535e-06
524.9341209648217,2.8646683493386706e-06
524.9541209648216,2.880559775614825e-06
524.9741209648216,2.8966070529738826e-06
524.9941209648216,2.912812431898047e-06
525.0141209648217,2.929178206369284e-06
525.0341209648217,2.945706714934611e-06
525.0541209648217,2.9624003418048177e-06
525.0741209648216,2.9792615179859185e-06
525.0941209648216,2.996292722445972e-06
525.1141209648216,3.013496483317965e-06
525.1341209648217,3.0308753791403045e-06
525.1541209648217,3.048432040135684e-06
525.1741209648217,3.0661691495312372e-06
525.1941209648216,3.0840894449195158e-06
525.2141209648216,3.1021957196632284e-06
525.2341209648216,3.120490824344891e-06
525.2541209648216,3.1389776682630078e-06
525.2741209648217,3.157659220976703e-06
525.2941209648217,3.17653851389995e-06
525.3141209648217,3.1956186419487977e-06
525.3341209648216,3.2149027652415303e-06
525.3541209648216,3.2343941108552097e-06
525.3741309648217,3.2541058787865987e-06
525.3941309648217,3.2740217350378917e-06
525.4141309648217,3.2941549167809496e-06
525.4341309648216,3.314508937725067e-06
525.4541309648216,3.335087388237832e-06
525.4741309648216,3.35589393748487e-06
525.4941309648217,3.376932335642479e-06
525.5141309648217,3.3982064161853955e-06
525.5341309648217,3.4197200982544986e-06
525.5541309648216,3.4414773891052426e-06
525.5741309648216,3.4634823866420423e-06
525.5941309648216,3.4857392820413787e-06
525.6141309648217,3.5082523624677266e-06
525.6341309648217,3.531026013885401e-06
525.6541309648217,3.5540647239724574e-06
525.6741309648216,3.5773730851385864e-06
525.6941309648216,3.6009557976534533e-06
525.7141309648216,3.62481767288973e-06
525.7341309648216,3.6489636366861254e-06
525.7541309648217,3.6733987328360625e-06
525.7741309648217,3.6981281267069e-06
525.7941309648216,3.7231571089980153e-06
525.8141309648216,3.7484910996412816e-06
525.8341309648216,3.7741356518529574e-06
525.8541309648216,3.8000964563432784e-06
525.8741309648217,3.82637934569163e-06
525.8941309648217,3.852990298894464e-06
525.9141409648216,3.8799490033022585e-06
525.9341409648216,3.907234802556526e-06
525.9541409648216,3.934867532693217e-06
525.9741409648217,3.9628538077241e-06
525.9941409648217,3.9912004137384346e-06
526.0141409648216,4.0199143146887245e-06
526.0341409648216,4.04900265841879e-06
526.0541409648216,4.078472782949023e-06
526.0741409648216,4.108332223031288e-06
526.0941409648217,4.13858871698795e-06
526.1141409648217,4.169250213848975e-06
526.1341409648217,4.200324880805752e-06
526.1541409648216,4.231821110995236e-06
526.1741409648216,4.263747531635021e-06
526.1941409648216,4.296113012527816e-06
526.2141409648217,4.328926674956271e-06
526.2341409648217,4.362197900989007e-06
526.2541409648217,4.3959363432244145e-06
526.2741409648216,4.430151934993588e-06
526.2941409648216,4.464854901052352e-06
526.3141409648216,4.500055768790276e-06
526.3341409648217,4.535765379988187e-06
526.3541409648217,4.571994903156708e-06
526.3741409648217,4.608755846494676e-06
526.3941409648216,4.64606007150268e-06
526.4141409648216,4.6839198072966645e-06
526.4341509648217,4.722367023849933e-06
526.4541509648217,4.761376308998376e-06
526.4741509648217,4.800980159396004e-06
526.4941509648216,4.841192433633944e-06
526.5141509648216,4.882027441718079e-06
526.5341509648216,4.923499964683158e-06
526.5541509648217,4.965625275321655e-06
526.5741509648217,5.0084191601093005e-06
526.5941509648217,5.051897942422189e-06
526.6141509648216,5.096078507141387e-06
526.6341509648216,5.140978326759718e-06
526.6541509648216,5.1866154891122075e-06
526.6741509648216,5.233008726866637e-06
526.6941509648217,5.280177448925969e-06
526.7141509648217,5.328141773909564e-06
526.7341509648217,5.37692256590545e-06
526.7541509648216,5.426541472698746e-06
526.7741509648216,5.47702096671616e-06
526.7941509648216,5.528384388949768e-06
526.8141509648217,5.5806559961587135e-06
526.8341509648217,5.63386101168272e-06
526.8541509648217,5.688025680250803e-06
526.8741509648216,5.743177327207564e-06
526.8941509648216,5.7993444226459474e-06
526.9141509648216,5.856556650993688e-06
526.9341509648217,5.914844986675969e-06
526.9541509648217,5.9742417765581806e-06
526.9741609648216,6.034811391041557e-06
526.9941609648216,6.096528676248766e-06
527.0141609648216,6.159460653611536e-06
527.0341609648217,6.223646151162025e-06
527.0541609648217,6.2891259155162434e-06
527.0741609648217,6.3559427561657534e-06
527.0941609648216,6.42414170499859e-06
527.1141609648216,6.4937701929841505e-06
527.1341609648216,6.564878246201085e-06
527.1541609648217,6.637518703670305e-06
527.1741609648217,6.711747459764526e-06
527.1941609648217,6.787623734321145e-06
527.2141609648216,6.865210373953657e-06
527.2341609648216,6.9445741884932285e-06
527.2541609648216,7.025786326945977e-06
527.2741609648217,7.108922697859771e-06
527.2941609648217,7.1940644395395e-06
527.3141609648217,7.281298446152791e-06
527.3341609648216,7.370717956388981e-06
527.3541609648216,7.4624232120324285e-06
527.3741609648216,7.556522194523842e-06
527.3941609648216,7.653131448348904e-06
527.4141609648217,7.752377000889704e-06
527.4341609648217,7.854395389194965e-06
527.4541609648217,7.95933480498248e-06
527.4741609648216,8.067356370022377e-06
527.4941609648216,8.178635554924371e-06
527.5141709648217,8.29342201605032e-06
527.5341709648217,8.411810184490143e-06
527.5541709648217,8.534085232595367e-06
527.5741709648216,8.66049759496816e-06
527.5941709648216,8.791321812901012e-06
527.6141709648216,8.92685913033323e-06
527.6341709648217,9.06744034430644e-06
527.6541709648217,9.213428927344158e-06
527.6741709648217,9.365224439029205e-06
527.6941709648216,9.523266243577715e-06
527.7141709648216,9.68803754946484e-06
527.7341709648216,9.860069786003362e-06
527.7541709648217,1.0039947330232073e-05
527.7741709648217,1.0228312595453026e-05
527.7941709648217,1.0425871490267251e-05
527.8141709648216,1.0633399253863665e-05
527.8341709648216,1.085174666970942e-05
527.8541709648216,1.1081846655504207e-05
527.8741709648216,1.1324721222356858e-05
527.8941709648217,1.1581488790558965e-05
527.9141709648217,1.1853371843056581e-05
527.9341709648216,1.2141704890803888e-05
527.9541709648216,1.2447942716514267e-05
527.9741709648216,1.2773668855114e-05
527.9941709648216,1.3120604260312356e-05
528.0141709648217,1.3490616097313633e-05
528.0341809648216,1.3885930782444568e-05
528.0541809648216,1.4308340263543787e-05
528.0741809648216,1.4760394445801494e-05
528.0941809648216,1.5244633222493151e-05
528.1141809648217,1.5763785752111625e-05
528.1341809648217,1.6320778178275554e-05
528.1541809648216,1.6918740769444242e-05
528.1741809648216,1.7561014337766753e-05
528.1941809648216,1.8251155788340058e-05
528.2141809648216,1.8992942643104484e-05
528.2341809648217,1.9790376378079902e-05
528.2541809648217,2.0647684408762473e-05
528.2741809648217,2.1569320556711552e-05
528.2941809648216,2.255996383053718e-05
528.3141809648216,2.36245153574669e-05
528.3341809648216,2.4768093307086765e-05
528.3541809648217,2.5996025657304524e-05
528.3741809648217,2.731384066401785e-05
528.3941809648217,2.8727254910812966e-05
528.4141809648216,3.0242158832761935e-05
528.4341809648216,3.186459962993789e-05
528.4541809648216,3.3600761510730156e-05
528.4741809648217,3.5456943232909795e-05
528.4941809648217,3.743953294116531e-05
528.5141809648217,3.955498033371891e-05
528.5341809648216,4.180976622642578e-05
528.5541809648216,4.421036962141111e-05
528.5741909648217,4.676454800842866e-05
528.5941909648217,4.947611848719084e-05
528.6141909648217,5.235257230909507e-05
528.6341909648216,5.5400007914754184e-05
528.6541909648216,5.862432640410167e-05
528.6741909648216,6.203118815789403e-05
528.6941909648217,6.562596884951117e-05
528.7141909648217,6.941371526821555e-05
528.7341909648217,7.33991014051711e-05
528.7541909648216,7.758638527781418e-05
528.7741909648216,8.197936698843139e-05
528.7941909648216,8.658134852579116e-05
528.8141909648216,9.139509582545269e-05
528.8341909648217,9.64228036037079e-05
528.8541909648217,0.00010166606347147994
528.8741909648217,0.00010712583581858295
